999.8845,19.98629
1000.849,19.24162
1001.813,18.92157
1002.777,18.96818
1003.741,18.89275
1004.706,18.51824
1005.67,18.06041
1006.634,17.50988
1007.598,17.70025
1008.563,18.54049
1009.527,18.3458
1010.491,17.62829
1011.455,17.36142
1012.42,17.69529
1013.384,17.72101
1014.348,16.96817
1015.312,16.94663
1016.276,17.22991
1017.241,17.25947
1018.205,17.13861
1019.169,16.99075
1020.133,16.88967
1021.098,16.94528
1022.062,16.96464
1023.026,16.34864
1023.99,15.76381
1024.955,15.28009
1025.919,15.12471
1026.883,15.53712
1027.847,16.1967
1028.812,15.99111
1029.776,15.27671
1030.74,14.84325
1031.704,14.75054
1032.668,15.06776
1033.633,15.35583
1034.597,15.2953
1035.561,14.87554
1036.525,14.18476
1037.49,13.777
1038.454,14.43613
1039.418,14.76007
1040.382,14.32162
1041.347,13.80072
1042.311,13.67122
1043.275,13.75026
1044.239,13.81234
1045.203,13.67925
1046.168,13.02657
1047.132,12.77646
1048.096,13.02674
1049.06,13.34056
1050.025,13.44724
1050.989,13.44176
1051.953,13.37555
1052.917,13.09586
1053.882,12.54103
1054.846,12.42951
1055.81,12.59931
1056.774,12.65658
1057.739,12.48667
1058.703,12.30958
1059.667,12.28799
1060.631,12.19588
1061.595,11.94065
1062.56,11.64992
1063.524,11.45051
1064.488,11.61011
1065.452,11.8969
1066.417,11.67026
1067.381,10.7837
1068.345,10.80673
1069.309,11.26899
1070.274,11.45251
1071.238,11.40882
1072.202,11.14939
1073.166,10.87662
1074.13,10.84381
1075.095,11.09385
1076.059,12.25533
1077.023,12.21089
1077.987,6.790967
1078.952,2.933613
1079.916,4.62498
1080.88,8.709258
1081.844,10.44278
1082.809,10.58687
1083.773,10.21908
1084.737,9.814101
1085.701,9.521885
1086.666,9.523212
1087.63,9.804141
1088.594,9.821172
1089.558,9.307608
1090.522,8.883759
1091.487,9.267422
1092.451,9.659541
1093.415,9.837421
1094.379,9.471475
1095.344,8.736153
1096.308,8.047373
1097.272,7.638125
1098.236,7.461611
1099.201,7.535703
1100.165,7.571836
1101.129,7.568535
1102.093,7.420772
1103.057,7.255215
1104.022,7.486016
1104.986,7.920488
1105.95,7.870605
1106.914,7.162822
1107.879,6.820342
1108.843,6.759727
1109.807,6.483418
1110.771,6.459863
1111.736,7.343604
1112.7,8.194668
1113.664,7.849189
1114.628,6.732149
1115.593,6.257803
1116.557,6.262207
1117.521,6.891953
1118.485,7.303037
1119.449,7.091338
1120.414,6.868301
1121.378,7.051104
1122.342,7.244131
1123.306,6.901787
1124.271,6.307695
1125.235,5.459756
1126.199,5.131133
1127.163,5.299219
1128.128,5.724648
1129.092,6.114434
1130.056,6.152295
1131.02,5.700078
1131.984,5.376533
1132.949,5.230176
1133.913,5.030244
1134.877,4.879951
1135.841,5.008125
1136.806,5.213398
1137.77,4.999268
1138.734,4.402276
1139.698,4.562383
1140.663,5.446982
1141.627,5.403389
1142.591,5.009414
1143.555,4.399024
1144.52,4.026348
1145.484,4.257041
1146.448,4.823379
1147.412,5.035703
1148.376,4.948643
1149.341,4.424219
1150.305,3.993555
1151.269,3.869414
1152.233,4.012246
1153.198,4.363711
1154.162,4.509414
1155.126,4.171338
1156.09,3.815752
1157.055,3.925313
1158.019,3.911406
1158.983,3.701973
1159.947,3.575879
1160.912,3.518154
1161.876,3.445918
1162.84,3.338809
1163.804,3.281016
1164.769,3.371475
1165.733,3.411377
1166.697,3.267881
1167.661,2.692891
1168.625,2.114473
1169.59,1.952744
1170.554,2.192803
1171.518,2.69418
1172.482,3.216543
1173.447,3.105518
1174.411,2.659434
1175.375,2.431709
1176.339,2.428906
1177.304,2.832334
1178.268,3.068955
1179.232,2.847832
1180.196,2.364111
1181.161,1.977998
1182.125,1.914365
1183.089,2.765342
1184.053,3.144785
1185.017,2.584844
1185.982,2.386142
1186.946,2.635811
1187.91,2.777383
1188.874,2.538496
1189.839,2.168232
1190.803,1.763125
1191.767,1.413379
1192.731,1.223223
1193.696,1.634853
1194.66,2.185928
1195.624,2.228223
1196.588,1.898447
1197.552,1.670234
1198.517,1.669834
1199.481,1.766172
1200.445,1.869824
1201.409,1.812061
1202.374,1.644844
1203.338,1.201035
1204.302,1.119141
1205.266,1.676484
1206.231,2.414687
1207.195,2.681113
1208.159,2.378174
1209.123,1.108652
1210.088,0.4915332
1211.052,0.9329883
1212.016,1.376748
1212.98,1.554824
1213.944,1.246191
1214.909,0.6540039
1215.873,0.4541016
1216.837,0.9587696
1217.801,1.451816
1218.766,1.861543
1219.73,1.300449
1220.694,0.4518945
1221.658,0.1502637
1222.623,0.2673535
1223.587,0.5337207
1224.551,0.7592676
1225.515,0.523916
1226.479,0.08365235
1227.444,0.5372168
1228.408,0.9939063
1229.372,0.9858008
1230.336,0.894209
1231.301,0.8282031
1232.265,0.6111035
1233.229,0.2149805
1234.193,-0.0290625
1235.158,0.1363867
1236.122,0.4384082
1237.086,1.005918
1238.05,0.9426563
1239.015,0.4690234
1239.979,0.2774414
1240.943,0.3984766
1241.907,0.4580078
1242.871,0.3555273
1243.836,0.3936035
1244.8,0.5789356
1245.764,0.4931836
1246.728,0.3816016
1247.693,0.5911426
1248.657,0.7545899
1249.621,0.5026465
1250.585,0.2420117
1251.55,0.4818359
1252.514,0.8969043
1253.478,0.9733399
1254.442,0.853125
1255.406,0.4077734
1256.371,0.2543164
1257.335,0.429043
1258.299,0.7419531
1259.263,1.01459
1260.228,1.01251
1261.192,0.6944922
1262.156,0.5676855
1263.12,0.8730664
1264.085,0.4166406
1265.049,-0.334375
1266.013,-0.02615234
1266.977,0.5626367
1267.942,0.346084
1268.906,-0.1801953
1269.87,-0.01986328
1270.834,0.5506445
1271.798,0.4978418
1272.763,0.1944336
1273.727,-0.1130859
1274.691,-0.2492578
1275.655,-0.02248047
1276.62,0.1253223
1277.584,0.1098145
1278.548,0.2249707
1279.512,0.5905664
1280.477,0.8468164
1281.441,0.7205566
1282.405,0.4535742
1283.369,0.159541
1284.333,0.01242188
1285.298,-0.08339844
1286.262,-0.4358594
1287.226,-0.8083301
1288.19,-0.7266504
1289.155,-0.2454102
1290.119,-0.01203125
1291.083,0.02248047
1292.047,-0.207168
1293.012,-0.4508887
1293.976,-0.48625
1294.94,-0.351084
1295.904,-0.04707031
1296.869,-0.006972656
1297.833,-0.4035352
1298.797,-0.789414
1299.761,-0.7262207
1300.725,-0.5145703
1301.69,-0.2553418
1302.654,-0.07401367
1303.618,-0.002490234
1304.582,0.04493164
1305.547,-0.04954102
1306.511,-0.5399805
1307.475,-1.016982
1308.439,-0.7350586
1309.404,0.08503906
1310.368,0.198584
1311.332,-0.1037207
1312.296,-0.3359082
1313.26,-0.5136133
1314.225,-0.7105274
1315.189,-0.8202637
1316.153,-0.7854102
1317.117,-0.4114648
1318.082,0.2247266
1319.046,0.2973145
1320.01,-0.8469726
1320.974,-1.348643
1321.939,-0.8148535
1322.903,-0.3559277
1323.867,-0.07826172
1324.831,-0.173877
1325.796,-0.5227539
1326.76,-1.022773
1327.724,-1.331387
1328.688,-0.889043
1329.652,-0.02673828
1330.617,0.3058398
1331.581,0.2939258
1332.545,0.06318359
1333.509,0.06764648
1334.474,0.4016601
1335.438,0.5629199
1336.402,0.3826172
1337.366,0.1196582
1338.331,0.01081055
1339.295,0.0544043
1340.259,0.2170508
1341.223,0.4365625
1342.188,0.5824121
1343.152,0.3379394
1344.116,0.04217773
1345.08,0.1561523
1346.044,0.4386035
1347.009,0.4727832
1347.973,0.3774902
1348.937,0.577666
1349.901,0.7573438
1350.866,0.1593066
1351.83,-0.144541
1352.794,0.653877
1353.758,0.6261817
1354.723,-0.2948633
1355.687,-0.7212695
1356.651,-0.3521484
1357.615,0.127334
1358.579,0.3306152
1359.544,0.3592773
1360.508,0.18625
1361.472,0.02341797
1362.436,-0.06103516
1363.401,-0.102832
1364.365,-0.1399414
1365.329,-0.04470703
1366.293,-0.08017578
1367.258,-0.4104492
1368.222,-0.5927441
1369.186,-0.1553418
1370.15,0.2395605
1371.115,0.05206055
1372.079,-0.06786133
1373.043,0.04264648
1374.007,-0.2677734
1374.971,-0.7540625
1375.936,-0.7218359
1376.9,-0.4312207
1377.864,-0.628252
1378.828,-1.130078
1379.793,-0.8707812
1380.757,0.02291992
1381.721,0.687627
1382.685,0.8023437
1383.65,-0.3466211
1384.614,-1.085928
1385.578,-0.6108301
1386.542,-0.2361328
1387.506,-0.4408008
1388.471,-0.8353516
1389.435,-1.073154
1390.399,-0.9350293
1391.363,-0.2873535
1392.328,-0.06623047
1393.292,-0.2803906
1394.256,-0.3616504
1395.22,-0.3935645
1396.185,-0.5955762
1397.149,-0.6773437
1398.113,-0.1679492
1399.077,0.2073144
1400.042,-0.3849414
1401.006,-1.083633
1401.97,-0.6689941
1402.934,-0.05575195
1403.898,0.2057617
1404.863,0.3120117
1405.827,0.2968555
1406.791,0.1279687
1407.755,-0.08711914
1408.72,-0.04128906
1409.684,0.1679395
1410.648,0.1949512
1411.612,0.009414063
1412.577,-0.1752148
1413.541,-0.4178027
1414.505,-0.632666
1415.469,-0.6241894
1416.433,-0.3227344
1417.398,-0.06799804
1418.362,0.06422851
1419.326,-0.1673242
1420.29,-0.5934961
1421.255,-0.6034277
1422.219,-0.06988281
1423.183,0.2302441
1424.147,0.0634082
1425.112,-0.2635449
1426.076,-0.5951465
1427.04,-0.1466797
1428.004,0.2677832
1428.969,0.01360352
1429.933,-0.504248
1430.897,-1.043115
1431.861,-0.9402637
1432.825,0.07782227
1433.79,0.7938379
1434.754,0.1625293
1435.718,-0.4071777
1436.682,-0.256084
1437.647,-0.397627
1438.611,-0.7774414
1439.575,-0.6484473
1440.539,-0.366748
1441.504,-0.6845508
1442.468,-1.060469
1443.432,-0.7104004
1444.396,0.05814453
1445.36,0.4562305
1446.325,0.4159082
1447.289,-0.4002051
1448.253,-0.8667774
1449.217,-0.305957
1450.182,0.1729394
1451.146,0.4459082
1452.11,0.1869629
1453.074,-0.2741113
1454.039,-0.4356445
1455.003,-0.2845996
1455.967,-0.07332031
1456.931,0.02921875
1457.896,-0.5921094
1458.86,-1.459062
1459.824,-1.711826
1460.788,-1.496641
1461.752,-0.6546777
1462.717,-0.06857422
1463.681,0.0580957
1464.645,-0.1000684
1465.609,-0.2845606
1466.574,-0.2268945
1467.538,0.006591797
1468.502,-0.1416699
1469.466,-0.7551367
1470.431,-0.8254101
1471.395,-0.4944922
1472.359,-0.1648535
1473.323,0.2175977
1474.287,0.8823242
1475.252,0.8258301
1476.216,-0.1193164
1477.18,-0.8491992
1478.144,-0.8255957
1479.109,-0.5807031
1480.073,-0.458584
1481.037,-0.4066895
1482.001,-0.3436133
1482.966,-0.1047461
1483.93,0.08410157
1484.894,-0.5186914
1485.858,-0.9951465
1486.823,-0.5140918
1487.787,-0.05492188
1488.751,-0.1632227
1489.715,-0.2883496
1490.68,0.004589844
1491.644,0.4029688
1492.608,0.6345703
1493.572,0.6073535
1494.536,0.2641309
1495.501,0.3976465
1496.465,0.7036719
1497.429,0.2395508
1498.393,-0.3747363
1499.358,-0.6165723
1500.322,-0.4437891
1501.286,0.0996875
1502.25,0.5622363
1503.215,0.5153125
1504.179,0.2518457
1505.143,-0.00375
1506.107,-0.1004004
1507.072,0.1277539
1508.036,0.5653321
1509,1.014561
1509.964,0.4149121
1510.928,-0.3725195
1511.893,-0.4066992
1512.857,0.03620117
1513.821,0.614414
1514.785,0.9658887
1515.75,0.7809375
1516.714,0.6544336
1517.678,1.179199
1518.642,1.353799
1519.607,0.428584
1520.571,0.4962305
1521.535,1.10916
1522.499,0.661211
1523.464,-0.08063477
1524.428,-0.1401367
1525.392,0.2990039
1526.356,0.9052832
1527.32,1.136172
1528.285,0.5665332
1529.249,-0.02530273
1530.213,0.2146289
1531.177,0.6342578
1532.142,0.9448828
1533.106,1.062607
1534.07,1.071201
1535.034,1.264639
1535.999,1.457256
1536.963,1.274092
1537.927,0.9565234
1538.891,0.8211719
1539.855,0.6188183
1540.82,0.1126074
1541.784,-0.0902539
1542.748,0.5991895
1543.712,1.086201
1544.677,0.6897754
1545.641,0.4799902
1546.605,0.4826172
1547.569,0.5598047
1548.534,0.6076367
1549.498,0.5368848
1550.462,0.3639063
1551.426,0.0562207
1552.391,0.1390625
1553.355,0.9346289
1554.319,1.78126
1555.283,2.089453
1556.247,2.08918
1557.212,1.776172
1558.176,1.694785
1559.14,1.844922
1560.104,1.638193
1561.069,1.467842
1562.033,1.709463
1562.997,1.94459
1563.961,1.818154
1564.926,1.772197
1565.89,2.094248
1566.854,2.230303
1567.818,1.847842
1568.782,1.737451
1569.747,2.247607
1570.711,2.572002
1571.675,2.660029
1572.639,2.801367
1573.604,3.041934
1574.568,3.141006
1575.532,3.516113
1576.496,4.638789
1577.461,5.624316
1578.425,6.135684
1579.389,6.720263
1580.353,7.621162
1581.318,8.437237
1582.282,9.06917
1583.246,10.19646
1584.21,11.82346
1585.174,12.92603
1586.139,13.95526
1587.103,15.55418
1588.067,16.86409
1589.031,17.5146
1589.996,17.64528
1590.96,17.44165
1591.924,17.11526
1592.888,16.71927
1593.853,16.24407
1594.817,15.7504
1595.781,15.24394
1596.745,14.60601
1597.709,13.45189
1598.674,12.27964
1599.638,12.38939
1600.602,12.09731
1601.566,10.41756
1602.531,8.952197
1603.495,7.99708
1604.459,7.711045
1605.423,7.746992
1606.388,7.65958
1607.352,7.156426
1608.316,6.046455
1609.28,4.708584
1610.245,4.056992
1611.209,3.948486
1612.173,4.282324
1613.137,4.42998
1614.101,3.961758
1615.066,3.596436
1616.03,3.388701
1616.994,3.618721
1617.958,3.847549
1618.923,3.601689
1619.887,2.96208
1620.851,2.009668
1621.815,1.397187
1622.78,1.632842
1623.744,1.95749
1624.708,1.739375
1625.672,1.786924
1626.636,2.650039
1627.601,2.804307
1628.565,2.208623
1629.529,2.317598
1630.493,2.492871
1631.458,2.074072
1632.422,1.595283
1633.386,1.415771
1634.35,1.242422
1635.315,0.9606152
1636.279,0.9976953
1637.243,1.375059
1638.207,1.393184
1639.172,0.8953613
1640.136,0.6593262
1641.1,0.7803418
1642.064,1.154268
1643.028,1.391328
1643.993,0.7683496
1644.957,0.3528711
1645.921,0.6554688
1646.885,0.6264453
1647.85,0.1920898
1648.814,-0.07935547
1649.778,-0.1055273
1650.742,0.008046875
1651.707,0.1350781
1652.671,0.1006738
1653.635,0.008740234
1654.599,0.1514746
1655.563,0.3403906
1656.528,0.4658594
1657.492,0.6031348
1658.456,0.6954492
1659.42,0.5099024
1660.385,0.1236719
1661.349,-0.07865234
1662.313,-0.2029297
1663.277,-0.6139453
1664.242,-0.7405859
1665.206,-0.1291309
1666.17,0.5178613
1667.134,0.6698925
1668.099,0.4099121
1669.063,-0.05204102
1670.027,-0.2179297
1670.991,0.03511719
1671.955,0.1645898
1672.92,0.1398047
1673.884,-0.2760938
1674.848,-0.5149707
1675.812,0.275498
1676.777,0.6677344
1677.741,0.2075781
1678.705,-0.1644434
1679.669,-0.2863281
1680.634,-0.4501758
1681.598,-0.6031543
1682.562,-0.3376074
1683.526,0.03916992
1684.49,-0.1109863
1685.455,-0.5988672
1686.419,-0.9260938
1687.383,-0.8598242
1688.347,-0.2331055
1689.312,0.09732422
1690.276,-0.2376172
1691.24,-0.2518164
1692.204,-0.008408203
1693.169,0.2094922
1694.133,0.3047363
1695.097,0.3415332
1696.061,0.1914648
1697.026,-0.2304785
1697.99,-0.3877734
1698.954,-0.1124902
1699.918,0.2726953
1700.882,0.4996191
1701.847,0.2699023
1702.811,-0.1986426
1703.775,0.3558984
1704.739,1.251133
1705.704,0.9942578
1706.668,0.462666
1707.632,0.3953418
1708.596,0.5019727
1709.561,0.669336
1710.525,0.61917
1711.489,0.5160645
1712.453,0.819043
1713.417,1.083984
1714.382,0.638252
1715.346,0.1977051
1716.31,0.3427734
1717.274,0.6061621
1718.239,0.6074707
1719.203,0.4943555
1720.167,0.3549414
1721.131,0.2966406
1722.096,0.3744043
1723.06,0.662832
1724.024,0.8553125
1724.988,0.04521484
1725.953,-0.5107031
1726.917,-0.08957031
1727.881,0.4288672
1728.845,0.8750586
1729.809,0.4681934
1730.774,-0.1462305
1731.738,0.3322656
1732.702,1.235869
1733.666,1.563945
1734.631,1.262471
1735.595,0.6636621
1736.559,0.4882617
1737.523,1.126309
1738.488,1.297568
1739.452,0.4939746
1740.416,-0.1990527
1741.38,-0.6589062
1742.344,-0.5129297
1743.309,-0.1670703
1744.273,-0.006044922
1745.237,0.3110449
1746.201,1.095342
1747.166,1.060244
1748.13,0.3184082
1749.094,0.4268945
1750.058,1.002549
1751.023,0.7529883
1751.987,0.1819141
1752.951,0.2658887
1753.915,0.526211
1754.88,0.3378808
1755.844,0.299541
1756.808,0.804336
1757.772,0.8770117
1758.736,0.1474414
1759.701,0.08795898
1760.665,0.5428028
1761.629,0.8603418
1762.593,0.8824024
1763.558,0.2224512
1764.522,-0.008623047
1765.486,0.5840918
1766.45,0.7086328
1767.415,0.4141309
1768.379,0.7075586
1769.343,1.194609
1770.307,0.8527832
1771.271,0.3212598
1772.236,0.5138672
1773.2,0.9162304
1774.164,0.9871875
1775.128,1.100752
1776.093,1.374365
1777.057,1.320723
1778.021,0.9059375
1778.985,0.7922657
1779.95,0.8804883
1780.914,0.9087988
1781.878,0.9157519
1782.842,1.160684
1783.807,1.281787
1784.771,1.236631
1785.735,1.292832
1786.699,1.300654
1787.663,1.008389
1788.628,0.608125
1789.592,0.2983398
1790.556,0.1153906
1791.52,0.07632813
1792.485,0.3352539
1793.449,0.8264356
1794.413,1.12123
1795.377,1.072568
1796.342,0.8107422
1797.306,0.4185254
1798.27,0.3482813
1799.234,0.4267871
1800.198,0.2726953
1801.163,0.2892578
1802.127,0.652334
1803.091,0.702959
1804.055,0.5667188
1805.02,0.6666309
1805.984,0.8499121
1806.948,1.003164
1807.912,0.9260644
1808.877,0.4120703
1809.841,0.3424414
1810.805,0.8817285
1811.769,1.190977
1812.734,1.025508
1813.698,0.6865039
1814.662,0.3909375
1815.626,0.3376074
1816.59,0.4625879
1817.555,0.6496192
1818.519,0.5089942
1819.483,-0.2849805
1820.448,-0.3794824
1821.412,0.6063184
1822.376,1.093848
1823.34,1.190059
1824.304,0.7689746
1825.269,0.461377
1826.233,0.9228906
1827.197,1.084072
1828.161,0.7668555
1829.126,0.3755274
1830.09,0.1430957
1831.054,0.4046582
1832.018,0.6870899
1832.983,0.3703613
1833.947,0.02800781
1834.911,0.1850586
1835.875,0.2463769
1836.839,-0.09491211
1837.804,-0.2059082
1838.768,0.154248
1839.732,0.5838672
1840.696,0.9045703
1841.661,0.6328515
1842.625,0.2597949
1843.589,0.7555469
1844.553,1.127813
1845.518,0.5920606
1846.482,0.6193848
1847.446,0.9490528
1848.41,0.6834082
1849.375,0.4156934
1850.339,0.7854883
1851.303,1.081934
1852.267,0.9486523
1853.231,0.7343262
1854.196,0.5472851
1855.16,0.2727539
1856.124,-0.01783203
1857.088,-0.2246875
1858.053,-0.2261621
1859.017,0.03988281
1859.981,0.4634961
1860.945,0.884834
1861.91,1.113506
1862.874,1.003994
1863.838,0.5570019
1864.802,-0.1491309
1865.766,-0.2967969
1866.731,-0.04692383
1867.695,0.2063281
1868.659,0.1444141
1869.623,-0.5648438
1870.588,-0.5604687
1871.552,0.1647852
1872.516,0.5524121
1873.48,0.6262403
1874.445,0.6983594
1875.409,0.6229395
1876.373,-0.1597754
1877.337,-0.3784668
1878.302,0.153291
1879.266,0.2404981
1880.23,-0.02255859
1881.194,0.09924804
1882.158,0.3954394
1883.123,0.4989453
1884.087,0.5076758
1885.051,0.4755664
1886.015,0.2219336
1886.98,-0.1685352
1887.944,0.03162109
1888.908,0.7493457
1889.872,0.4801758
1890.837,-0.2880469
1891.801,-0.2853125
1892.765,0.04771484
1893.729,0.363457
1894.693,0.3885156
1895.658,-0.01620117
1896.622,-0.09384765
1897.586,0.05074219
1898.55,0.2221094
1899.515,0.3962109
1900.479,0.6268945
1901.443,0.5898926
1902.407,0.2438477
1903.372,0.2266895
1904.336,0.3955859
1905.3,0.189707
1906.264,-0.1858106
1907.229,-0.4624707
1908.193,-0.5465527
1909.157,-0.4318359
1910.121,-0.1644727
1911.085,0.09302735
1912.05,0.1039453
1913.014,-0.008544922
1913.978,0.07829101
1914.942,0.3694043
1915.907,0.7562988
1916.871,0.8361523
1917.835,0.3519629
1918.799,-0.0809375
1919.764,-0.2774902
1920.728,0.06762695
1921.692,0.6068262
1922.656,0.125
1923.62,-0.386709
1924.585,0.1386328
1925.549,0.4470606
1926.513,0.2301856
1927.477,0.2580078
1928.442,0.345
1929.406,0.07292969
1930.37,-0.08203125
1931.334,0.3550879
1932.299,0.7371387
1933.263,0.8303027
1934.227,0.3139844
1935.191,-0.4252149
1936.156,-0.5802343
1937.12,-0.3442578
1938.084,-0.08009765
1939.048,0.09244141
1940.012,0.1528223
1940.977,0.3293164
1941.941,0.6174512
1942.905,0.6461328
1943.869,0.3816895
1944.834,0.04212891
1945.798,-0.1758301
1946.762,0.005722656
1947.726,0.3895215
1948.691,0.8400977
1949.655,1.043848
1950.619,0.835
1951.583,0.349043
1952.547,-0.2762695
1953.512,-0.6613281
1954.476,-0.6243457
1955.44,-0.01599609
1956.404,0.5417676
1957.369,0.938291
1958.333,0.7195312
1959.297,0.2970215
1960.261,0.5283301
1961.226,0.7024219
1962.19,0.1709473
1963.154,-0.1627246
1964.118,-0.1755762
1965.083,-0.2219434
1966.047,-0.1758398
1967.011,0.245918
1967.975,0.566709
1968.939,0.3766602
1969.904,0.2360156
1970.868,0.3723242
1971.832,0.327793
1972.796,0.01692383
1973.761,-0.4593848
1974.725,-0.6167774
1975.689,0.02640625
1976.653,0.5768164
1977.618,0.3337207
1978.582,0.1393652
1979.546,0.365752
1980.51,0.7205469
1981.474,0.8545508
1982.439,0.05404297
1983.403,-0.8388965
1984.367,-0.7309473
1985.331,-0.3543457
1986.296,-0.08814453
1987.26,-0.06898437
1988.224,-0.2592969
1989.188,-0.1591797
1990.153,0.002011719
1991.117,0.1800879
1992.081,0.2377246
1993.045,-0.2129102
1994.01,-0.2602637
1994.974,-0.02399414
1995.938,0.2740625
1996.902,0.5383008
1997.866,0.415791
1998.831,0.2444434
1999.795,0.1249902
2000.759,0.1690039
2001.723,0.2864941
2002.688,0.1057227
2003.652,-0.09474609
2004.616,0.04345703
2005.58,0.3162891
2006.545,0.5687988
2007.509,0.2800586
2008.473,-0.3521191
2009.437,-0.642998
2010.401,-0.5747266
2011.366,-0.4310742
2012.33,0.04670899
2013.294,0.8722461
2014.258,0.8166797
2015.223,-0.06139648
2016.187,-0.03581055
2017.151,0.7426856
2018.115,1.030674
2019.08,0.9200781
2020.044,0.7051075
2021.008,0.1982129
2021.972,-0.5228027
2022.937,-0.5558398
2023.901,0.02994141
2024.865,-0.1450391
2025.829,-0.4137695
2026.793,0.3204004
2027.758,0.7465039
2028.722,0.08756836
2029.686,-0.1218164
2030.65,0.2307227
2031.615,-0.3195801
2032.579,-0.9274707
2033.543,-0.2266602
2034.507,0.3280078
2035.472,-0.1281445
2036.436,-0.3413867
2037.4,-0.2223731
2038.364,-0.2487598
2039.328,-0.2194531
2040.293,0.2750586
2041.257,0.5272754
2042.221,0.1139941
2043.185,0.07259765
2044.15,0.2103711
2045.114,-0.450293
2046.078,-1.020068
2047.042,-0.3274414
2048.007,0.1958789
2048.971,-0.008076172
2049.935,-0.1228516
2050.899,-0.03256836
2051.864,0.2223535
2052.828,0.2502539
2053.792,-0.5358887
2054.756,-0.9254004
2055.72,-0.498584
2056.685,0.1619531
2057.649,0.5468848
2058.613,0.01973633
2059.577,-0.6204687
2060.542,-0.5305664
2061.506,0.008681641
2062.47,0.606709
2063.434,0.9259278
2064.399,0.9778125
2065.363,1.008828
2066.327,1.017822
2067.291,0.9529199
2068.256,0.4720312
2069.22,-0.404668
2070.184,-0.6596875
2071.148,-0.2134766
2072.113,0.01791016
2073.077,-0.1749023
2074.041,-0.7086816
2075.005,-0.9191211
2075.969,-0.3208496
2076.934,0.1705273
2077.898,0.1697363
2078.862,0.05169922
2079.826,-0.3219824
2080.791,-1.131504
2081.755,-1.300586
2082.719,-0.1827539
2083.683,0.2748535
2084.647,-0.4143066
2085.612,-0.9949414
2086.576,-1.249228
2087.54,-0.7340235
2088.504,-0.2215137
2089.469,-0.3210156
2090.433,-0.3424805
2091.397,-0.2220215
2092.361,0.02891602
2093.326,0.3088086
2094.29,0.3341894
2095.254,0.2505664
2096.218,0.07545898
2097.183,-0.02091797
2098.147,-0.06026367
2099.111,-0.3835449
2100.075,-0.6346777
2101.04,-0.4305371
2102.004,-0.149375
2102.968,0.1389941
2103.932,0.4612598
2104.896,0.737832
2105.861,0.3537402
2106.825,-0.1406152
2107.789,-0.3097559
2108.753,-0.1132031
2109.718,0.5450488
2110.682,0.497959
2111.646,-0.08606445
2112.61,-0.9530371
2113.574,-1.358574
2114.539,-0.5942481
2115.503,0.02049805
2116.467,0.2314844
2117.431,0.2163476
2118.396,0.1371777
2119.36,0.1127441
2120.324,0.1719531
2121.288,0.3416113
2122.253,0.6124121
2123.217,0.7559277
2124.181,-0.03224609
2125.145,-0.9014746
2126.11,-0.7456055
2127.074,-0.4113184
2128.038,-0.3700488
2129.002,-0.2597558
2129.967,-0.08264648
2130.931,-0.2102539
2131.895,-0.5072852
2132.859,-0.9265918
2133.823,-1.055264
2134.788,-0.7868359
2135.752,-0.8542383
2136.716,-1.123545
2137.68,-0.945127
2138.645,-0.5296386
2139.609,-0.1251953
2140.573,0.1808301
2141.537,0.3281738
2142.501,0.2361524
2143.466,-0.01679688
2144.43,-0.3378906
2145.394,-0.7522852
2146.358,-1.211396
2147.323,-0.8867773
2148.287,0.03617188
2149.251,0.3681543
2150.215,0.2154199
2151.18,0.1473145
2152.144,0.2392481
2153.108,0.354375
2154.072,-0.1011914
2155.037,-0.8778809
2156.001,-0.9237695
2156.965,-0.4757617
2157.929,-0.1675391
2158.894,-0.01619141
2159.858,0.007236328
2160.822,-0.2054785
2161.786,-0.5048047
2162.75,-0.6193457
2163.715,-0.4914063
2164.679,-0.2164746
2165.643,-0.5605859
2166.607,-1.436582
2167.572,-1.241465
2168.536,-0.3660547
2169.5,-0.3770019
2170.464,-0.8742383
2171.428,-1.080615
2172.393,-0.6764453
2173.357,0.08966797
2174.321,0.3004004
2175.285,0.03418945
2176.25,-0.1680762
2177.214,-0.3440527
2178.178,-0.5223926
2179.142,-0.4613574
2180.107,-0.22375
2181.071,-0.2730469
2182.035,-0.4846191
2182.999,-0.5440625
2183.964,-0.6271484
2184.928,-0.7297949
2185.892,-0.5979785
2186.856,-0.2945215
2187.821,-0.04264648
2188.785,0.09833008
2189.749,0.1166797
2190.713,0.01867188
2191.677,-0.129043
2192.642,-0.1604981
2193.606,0.06360351
2194.57,0.5675293
2195.534,0.8107324
2196.499,0.4698926
2197.463,-0.06161133
2198.427,-0.4185742
2199.391,-0.1751953
2200.355,-0.04790039
2201.32,-0.8061328
2202.284,-1.229775
2203.248,-0.8172168
2204.212,-0.4988184
2205.177,-0.3777832
2206.141,-0.08728515
2207.105,-0.02660156
2208.069,-0.4294336
2209.034,-0.6164941
2209.998,-0.3991992
2210.962,-0.07496094
2211.926,0.06121094
2212.891,-0.2219434
2213.855,-0.4269824
2214.819,-0.2539648
2215.783,0.1199316
2216.748,0.3743262
2217.712,0.04151367
2218.676,-0.1944434
2219.64,0.2720312
2220.604,0.4595312
2221.569,0.1237109
2222.533,0.01961914
2223.497,0.06799804
2224.461,-0.06926758
2225.426,-0.07732422
2226.39,0.09959961
2227.354,-0.0287207
2228.318,-0.319043
2229.282,-0.1598828
2230.247,0.0190918
2231.211,-0.2620606
2232.175,-0.4757813
2233.139,-0.4018848
2234.104,-0.3309766
2235.068,-0.2244141
2236.032,0.09899414
2236.996,0.1956055
2237.961,-0.1230664
2238.925,-0.4406152
2239.889,-0.5647461
2240.853,-0.4250683
2241.818,-0.2694238
2242.782,-0.2892969
2243.746,-0.2747656
2244.71,-0.1916992
2245.675,-0.1181445
2246.639,-0.1218164
2247.603,-0.2730469
2248.567,-0.3921191
2249.531,-0.4084473
2250.496,-0.4948535
2251.46,-0.5390137
2252.424,-0.2053711
2253.388,-0.08822265
2254.353,-0.5653515
2255.317,-0.7974316
2256.281,-0.654502
2257.245,-0.734414
2258.209,-0.8266406
2259.174,-0.3690723
2260.138,-0.09310547
2261.102,-0.2742871
2262.066,-0.09035156
2263.031,0.3074219
2263.995,0.3608398
2264.959,0.08282226
2265.923,-0.5368359
2266.888,-0.9775293
2267.852,-1.029492
2268.816,-0.2098535
2269.78,0.4808106
2270.745,-0.2169629
2271.709,-0.8139453
2272.673,-0.8373535
2273.637,-0.4285645
2274.602,-0.1094238
2275.566,-0.8805859
2276.53,-1.38458
2277.494,-0.6518555
2278.458,-0.1619434
2279.423,-0.08848633
2280.387,-0.3920508
2281.351,-0.5933301
2282.315,-0.1980566
2283.28,0.03082031
2284.244,-0.03459961
2285.208,-0.267041
2286.172,-0.4289258
2287.136,0.169082
2288.101,0.5721484
2289.065,0.2164844
2290.029,-0.1054688
2290.993,-0.3686133
2291.958,-0.2746875
2292.922,-0.04220703
2293.886,0.1552246
2294.85,0.1637988
2295.815,-0.142373
2296.779,0.04746094
2297.743,0.3026367
2298.707,-0.5059375
2299.672,-0.9948828
2300.636,-0.4148633
2301.6,0.02067383
2302.564,0.253418
2303.529,0.3160352
2304.493,0.1732227
2305.457,-0.2079297
2306.421,-0.5136817
2307.385,-0.6354297
2308.35,-0.3788086
2309.314,0.02092773
2310.278,0.1643945
2311.242,0.1424609
2312.207,0.0344043
2313.171,-0.02572266
2314.135,-0.07639649
2315.099,-0.1861133
2316.064,-0.1238379
2317.028,0.1820801
2317.992,0.3517773
2318.956,0.2516602
2319.921,-0.05949219
2320.885,-0.3682227
2321.849,-0.4719531
2322.813,-0.4568164
2323.778,-0.4209765
2324.742,-0.5600488
2325.706,-0.5882422
2326.67,-0.1579785
2327.635,0.3163184
2328.599,0.6677051
2329.563,1.171113
2330.527,1.819072
2331.491,2.539111
2332.456,2.640908
2333.42,2.051514
2334.384,1.970937
2335.348,2.073213
2336.313,1.291299
2337.277,0.2116211
2338.241,-0.6627832
2339.205,-0.8547559
2340.169,-0.6929785
2341.134,-1.022754
2342.098,-1.278535
2343.062,-0.854248
2344.026,-0.5198242
2344.991,-0.4401074
2345.955,-0.2875586
2346.919,-0.08942383
2347.883,0.2973828
2348.848,0.1456445
2349.812,-0.8296192
2350.776,-0.6399902
2351.74,0.06512696
2352.705,-0.07833984
2353.669,-0.2184961
2354.633,0.1605078
2355.597,-0.04091797
2356.562,-0.607041
2357.526,-0.5161914
2358.49,-0.474541
2359.454,-1.156191
2360.418,-1.189922
2361.383,-0.4047949
2362.347,-0.1969141
2363.311,-0.3930469
2364.275,-0.8213965
2365.24,-0.7366504
2366.204,0.02592773
2367.168,0.2740234
2368.132,-0.04818359
2369.096,-0.7963281
2370.061,-1.309541
2371.025,-1.180713
2371.989,-0.4608691
2372.953,0.3298242
2373.918,0.1387012
2374.882,-0.5013183
2375.846,-0.9220703
2376.81,-0.5112793
2377.775,0.2796191
2378.739,0.3791895
2379.703,0.04973633
2380.667,-0.277627
2381.632,-0.493916
2382.596,-0.5479004
2383.56,-0.4270801
2384.524,-0.2210156
2385.489,-0.008662109
2386.453,-0.3299316
2387.417,-0.8625
2388.381,-0.4571387
2389.345,0.006669922
2390.31,-0.6120801
2391.274,-0.4993164
2392.238,0.4072754
2393.202,0.5118945
2394.167,0.1200293
2395.131,-0.3121582
2396.095,-0.5671777
2397.059,-0.668584
2398.023,-0.217002
2398.988,0.3730664
2399.952,0.539209
2400.916,0.3734277
2401.88,-0.2533106
2402.845,-0.4409277
2403.809,-0.2906348
2404.773,-0.2579004
2405.737,-0.08665039
2406.702,0.4344141
2407.666,0.3203027
2408.63,-0.3409473
2409.594,-0.08397461
2410.559,0.2575
2411.523,-0.01791992
2412.487,-0.166875
2413.451,-0.08380859
2414.416,-0.2389844
2415.38,-0.4043262
2416.344,-0.3147559
2417.308,-0.145625
2418.272,-0.075625
2419.237,-0.3816211
2420.201,-0.6348438
2421.165,-0.4471289
2422.129,-0.188623
2423.094,-0.01558594
2424.058,0.1726855
2425.022,0.219668
2425.986,-0.09294922
2426.95,-0.05172852
2427.915,0.365791
2428.879,0.5138672
2429.843,0.3950391
2430.807,0.09264649
2431.772,-0.03859375
2432.736,0.07023437
2433.7,0.1805469
2434.664,0.2759473
2435.629,0.5248828
2436.593,0.6042871
2437.557,0.2438086
2438.521,0.3833399
2439.486,0.8405664
2440.45,0.9492676
2441.414,0.94875
2442.378,0.9129004
2443.343,0.6302149
2444.307,0.3575781
2445.271,0.6921191
2446.235,1.046641
2447.199,1.019502
2448.164,0.9555176
2449.128,0.8248242
2450.092,0.3810937
2451.056,0.3721387
2452.021,1.03918
2452.985,1.208711
2453.949,0.9805176
2454.913,1.145772
2455.877,1.048467
2456.842,0.4673242
2457.806,0.199209
2458.77,0.3358594
2459.734,0.9506446
2460.699,1.215635
2461.663,0.6292188
2462.627,0.6745605
2463.591,1.1504
2464.556,1.029395
2465.52,0.8080957
2466.484,0.8619238
2467.448,0.8466504
2468.413,0.7462988
2469.377,0.7017773
2470.341,0.7879297
2471.305,1.10667
2472.27,1.077451
2473.234,0.6944043
2474.198,0.8229101
2475.162,0.9535645
2476.126,0.6583593
2477.091,0.5825781
2478.055,0.7502832
2479.019,0.6351855
2479.983,0.4561035
2480.948,0.4918897
2481.912,0.6647461
2482.876,0.8812891
2483.84,1.056367
2484.804,1.165654
2485.769,1.215137
2486.733,0.8116455
2487.697,0.3177246
2488.661,0.676001
2489.626,1.103936
2490.59,1.074502
2491.554,0.9527978
2492.518,0.8113574
2493.483,0.8052881
2494.447,0.8369531
2495.411,0.8809229
2496.375,0.8917627
2497.34,0.7837598
2498.304,0.290083
2499.268,-0.151665
2500.232,-0.1616162
2501.197,0.2455322
2502.161,0.7874511
2503.125,0.6568115
2504.089,0.4862451
2505.053,0.7792481
2506.018,0.6572119
2506.982,0.2995947
2507.946,0.7136572
2508.91,1.241992
2509.875,1.325186
2510.839,1.138789
2511.803,0.8114648
2512.767,0.3316211
2513.731,0.005717773
2514.696,-0.02352051
2515.66,-0.04738281
2516.624,0.01263672
2517.588,0.5624512
2518.553,0.9948242
2519.517,0.9950733
2520.481,0.6591552
2521.445,0.2420117
2522.41,0.4433301
2523.374,0.5575196
2524.338,0.1733008
2525.302,0.1079248
2526.267,0.4074609
2527.231,0.6110156
2528.195,0.7435791
2529.159,0.8058106
2530.124,0.6707568
2531.088,0.4855762
2532.052,0.4889014
2533.016,0.4586963
2533.98,0.3573535
2534.945,0.5956641
2535.909,0.8122363
2536.873,0.3536963
2537.837,0.06350586
2538.802,0.1918701
2539.766,0.3319824
2540.73,0.4283789
2541.694,0.4949853
2542.658,0.5436426
2543.623,0.5687011
2544.587,0.3799316
2545.551,0.1940479
2546.515,0.3059082
2547.48,0.1624853
2548.444,-0.2745898
2549.408,-0.07063965
2550.372,0.5931738
2551.337,1.1275
2552.301,1.170195
2553.265,0.8196631
2554.229,0.6402149
2555.194,0.5121436
2556.158,0.2742871
2557.122,0.4400537
2558.086,0.7572412
2559.051,0.351084
2560.015,-0.009125977
2560.979,0.4147314
2561.943,0.5041406
2562.907,0.2892041
2563.872,0.3538477
2564.836,0.550835
2565.8,0.8370361
2566.764,1.053447
2567.729,1.039131
2568.693,0.414834
2569.657,0.09237304
2570.621,0.5927051
2571.585,0.8707178
2572.55,0.7617041
2573.514,0.5902588
2574.478,0.6758447
2575.442,0.9446094
2576.407,0.5849316
2577.371,0.02240234
2578.335,0.01807129
2579.299,0.1795264
2580.264,0.384292
2581.228,1.141577
2582.192,1.702114
2583.156,1.066533
2584.121,0.529956
2585.085,0.3485498
2586.049,0.6308008
2587.013,0.871499
2587.978,0.5775342
2588.942,0.3512744
2589.906,0.4015967
2590.87,0.5954834
2591.834,0.6721582
2592.799,0.4472461
2593.763,0.107959
2594.727,-0.06407715
2595.691,0.3793164
2596.656,0.5646679
2597.62,0.1186182
2598.584,-0.01641113
2599.548,0.1495654
2600.512,0.1737549
2601.477,0.1617041
2602.441,0.2077588
2603.405,0.5361816
2604.369,0.7105371
2605.334,-0.1183447
2606.298,-0.4468799
2607.262,0.2474658
2608.226,0.7643408
2609.191,1.032573
2610.155,1.083325
2611.119,1.166196
2612.083,1.219277
2613.048,0.6869776
2614.012,0.1731299
2614.976,0.2925537
2615.94,1.037158
2616.905,1.795708
2617.869,1.681997
2618.833,1.218735
2619.797,0.7173242
2620.761,0.1228076
2621.726,-0.3034961
2622.69,0.09696289
2623.654,0.3250098
2624.618,-0.02599609
2625.583,-0.03905762
2626.547,0.2569385
2627.511,0.6490479
2628.475,0.7495362
2629.439,0.4802637
2630.404,0.1288623
2631.368,0.2706397
2632.332,1.229902
2633.296,1.588354
2634.261,1.254629
2635.225,0.981709
2636.189,0.8921435
2637.153,1.031816
2638.118,0.8629444
2639.082,0.5709766
2640.046,0.8577881
2641.01,0.9231494
2641.975,0.3609228
2642.939,0.7569776
2643.903,1.499868
2644.867,1.269541
2645.832,1.002466
2646.796,1.153032
2647.76,1.56876
2648.724,1.846079
2649.688,1.678242
2650.653,1.540811
2651.617,1.55897
2652.581,1.541113
2653.545,1.614458
2654.51,1.939497
2655.474,1.810532
2656.438,1.525254
2657.402,1.939697
2658.367,2.294849
2659.331,2.318711
2660.295,2.509712
2661.259,2.760684
2662.224,2.844824
2663.188,2.976328
2664.152,3.189033
2665.116,3.207324
2666.081,3.154033
2667.045,3.234463
2668.009,3.653008
2668.973,4.134785
2669.938,4.089292
2670.902,3.981519
2671.866,4.055503
2672.83,4.477002
2673.794,4.95415
2674.759,4.961382
2675.723,5.040825
2676.687,5.397803
2677.651,5.475078
2678.615,5.596665
2679.58,6.178374
2680.544,6.422495
2681.508,6.338657
2682.472,6.67041
2683.437,7.060503
2684.401,7.212124
2685.365,7.054228
2686.329,7.208423
2687.294,9.025494
2688.258,10.16383
2689.222,9.614765
2690.186,9.626822
2691.151,10.11531
2692.115,10.92174
2693.079,11.79554
2694.043,12.47342
2695.008,12.40491
2695.972,12.20929
2696.936,12.52184
2697.9,13.11815
2698.865,13.75282
2699.829,14.16016
2700.793,14.84447
2701.757,15.84144
2702.721,16.06412
2703.686,15.98113
2704.65,16.32796
2705.614,16.51442
2706.578,16.45973
2707.542,16.82487
2708.507,17.19889
2709.471,17.23695
2710.435,17.38083
2711.399,17.54781
2712.364,17.3958
2713.328,16.91153
2714.292,16.34049
2715.256,16.14949
2716.221,16.16327
2717.185,16.46898
2718.149,15.9827
2719.113,14.79537
2720.078,14.23068
2721.042,13.94334
2722.006,13.78579
2722.97,13.77437
2723.935,13.62866
2724.899,12.84807
2725.863,12.54357
2726.827,12.8111
2727.792,11.9516
2728.756,10.85627
2729.72,10.66323
2730.684,10.86441
2731.648,10.90919
2732.613,9.791255
2733.577,8.906406
2734.541,9.150034
2735.505,8.883989
2736.469,8.260161
2737.434,7.771401
2738.398,7.173916
2739.362,6.564527
2740.326,6.707768
2741.291,7.349702
2742.255,7.821431
2743.219,6.910796
2744.183,5.57229
2745.148,6.066499
2746.112,6.339116
2747.076,5.44959
2748.04,4.921978
2749.005,4.655586
2749.969,4.523921
2750.933,3.975425
2751.897,3.120435
2752.862,3.072104
2753.826,3.325815
2754.79,3.348901
2755.754,3.195176
2756.719,3.09957
2757.683,3.461167
2758.647,3.474507
2759.611,3.034092
2760.575,2.918315
2761.54,2.875234
2762.504,2.613672
2763.468,2.479766
2764.432,2.392788
2765.396,1.996772
2766.361,1.898228
2767.325,2.161255
2768.289,1.624907
2769.253,1.117739
2770.218,1.636738
2771.182,1.875298
2772.146,1.599834
2773.11,1.187632
2774.075,0.895542
2775.039,0.8568652
2776.003,0.8939258
2776.967,1.052949
2777.932,1.391538
2778.896,1.145332
2779.86,0.4328418
2780.824,0.544292
2781.789,0.7971533
2782.753,0.6089209
2783.717,0.3724512
2784.681,0.4982666
2785.646,1.85353
2786.61,2.142368
2787.574,0.9333252
2788.538,0.9302881
2789.502,0.9894092
2790.467,0.2337402
2791.431,0.02107422
2792.395,0.4286133
2793.359,0.7064648
2794.323,0.8320166
2795.288,0.8848584
2796.252,1.122007
2797.216,1.125918
2798.18,0.3922363
2799.145,0.2369238
2800.109,0.5202246
2801.073,0.2763672
2802.037,0.3097803
2803.002,0.9280567
2803.966,1.036431
2804.93,0.7140625
2805.894,0.3795996
2806.859,0.194043
2807.823,0.157373
2808.787,0.2050439
2809.751,0.163584
2810.716,0.0190332
2811.68,0.3404443
2812.644,0.7286767
2813.608,0.7310987
2814.573,0.4438818
2815.537,-0.05389648
2816.501,-0.1919043
2817.465,0.08015625
2818.429,0.5413818
2819.394,0.3767725
2820.358,0.04986328
2821.322,0.3360303
2822.286,0.3995996
2823.25,0.1585059
2824.215,0.2835059
2825.179,0.4057715
2826.143,0.2764404
2827.107,0.207583
2828.072,-0.3452295
2829.036,-1.031553
2830,6.177656
2830.964,16.49311
2831.929,10.54398
2832.893,1.977974
2833.857,0.4844873
2834.821,0.2357666
2835.786,0.111499
2836.75,0.7634668
2837.714,0.9914551
2838.678,0.6856445
2839.643,0.4789795
2840.607,0.1430225
2841.571,-0.3561328
2842.535,-0.3694727
2843.5,-0.2548877
2844.464,-0.6146191
2845.428,-0.4056006
2846.392,0.1823291
2847.356,-0.2475732
2848.321,-0.5324512
2849.285,0.02140137
2850.249,0.02756348
2851.213,-0.3498877
2852.177,-0.7258008
2853.142,-0.48604
2854.106,0.1665088
2855.07,0.3770508
2856.034,-0.0742334
2856.999,-0.8692578
2857.963,-0.628501
2858.927,-0.05352539
2859.891,-0.2479199
2860.856,-0.04157715
2861.82,0.4178418
2862.784,0.152959
2863.748,-0.105376
2864.713,0.02112793
2865.677,0.3093652
2866.641,0.3008154
2867.605,-0.2615381
2868.57,-0.5097315
2869.534,-0.2712744
2870.498,0.5568311
2871.462,0.8463281
2872.427,0.2209961
2873.391,0.01285645
2874.355,0.1636621
2875.319,0.4595264
2876.283,0.4144678
2877.248,0.06929687
2878.212,-0.2644092
2879.176,-0.1618213
2880.14,0.2332617
2881.104,-0.08266602
2882.069,-0.4724561
2883.033,-0.4683936
2883.997,-0.2839063
2884.961,0.01814453
2885.926,0.3066211
2886.89,0.6492285
2887.854,0.872251
2888.818,0.4237012
2889.783,-0.001401367
2890.747,-0.01133301
2891.711,-0.1025684
2892.675,-0.08988769
2893.64,0.5395166
2894.604,0.5251465
2895.568,-0.09499512
2896.532,-0.2247412
2897.497,-0.2333887
2898.461,-0.3403369
2899.425,-0.4857422
2900.389,-0.5537403
2901.354,-0.4685742
2902.318,-0.4565967
2903.282,-0.3994531
2904.246,0.1177783
2905.21,0.3091455
2906.175,-0.002641601
2907.139,-0.2128369
2908.103,-0.2254492
2909.067,-0.03483398
2910.031,0.2453564
2910.996,0.2785742
2911.96,-0.5131592
2912.924,-0.6201416
2913.888,-0.03414551
2914.853,-0.01709961
2915.817,0.05922852
2916.781,0.4302149
2917.745,0.3449414
2918.71,0.2349854
2919.674,0.5285791
2920.638,-0.1003271
2921.602,-1.007686
2922.567,-0.3656641
2923.531,0.206665
2924.495,0.1490186
2925.459,0.1725293
2926.424,0.176084
2927.388,0.07791504
2928.352,-0.1826514
2929.316,-0.4194043
2930.281,-0.3407617
2931.245,-0.327583
2932.209,-0.4580176
2933.173,-0.6801758
2934.137,-0.6620849
2935.102,-0.1889063
2936.066,-0.2430713
2937.03,-0.2883789
2937.994,0.1516895
2938.958,0.3199756
2939.923,0.1072949
2940.887,-0.2721875
2941.851,-0.1231543
2942.815,0.3873828
2943.78,0.1142334
2944.744,-0.3832861
2945.708,-0.8194678
2946.672,-0.4630225
2947.637,0.205332
2948.601,0.4116651
2949.565,0.08674805
2950.529,-0.3449658
2951.494,-0.05307617
2952.458,-0.007241211
2953.422,-0.4636523
2954.386,-0.4453174
2955.351,-0.297041
2956.315,-0.3384522
2957.279,-0.1660352
2958.243,0.01652832
2959.208,-0.1287549
2960.172,0.1330957
2961.136,0.5592383
2962.1,0.118418
2963.064,-0.4426172
2964.029,-0.7136182
2964.993,0.06886718
2965.957,0.8478516
2966.921,0.8918799
2967.885,0.8416553
2968.85,0.7132617
2969.814,0.357666
2970.778,-0.1134619
2971.743,-0.4991797
2972.707,-0.5068262
2973.671,-0.4167432
2974.635,-0.3950049
2975.6,0.1630176
2976.564,0.7221533
2977.528,0.7753174
2978.492,0.4724658
2979.457,-0.01285156
2980.421,-0.4711474
2981.385,-0.3194775
2982.349,0.2209473
2983.313,0.1236182
2984.278,-0.1605273
2985.242,-0.3834961
2986.206,-0.1718311
2987.17,-0.05429687
2988.135,-0.4944482
2989.099,-0.7643116
2990.063,-0.6543213
2991.027,-0.09770996
2991.991,0.2214014
2992.956,0.25854
2993.92,0.5411328
2994.884,0.7129297
2995.848,0.5852344
2996.813,0.04904297
2997.777,-0.3426856
2998.741,-0.07530762
2999.705,0.6267236
3000.67,1.017871
3001.634,0.03929199
3002.598,-0.5556836
3003.562,-0.5217139
3004.527,-0.1463574
3005.491,0.001210938
3006.455,-0.2724072
3007.419,-0.5883789
3008.384,-0.4538086
3009.348,0.2823633
3010.312,0.5647217
3011.276,0.2112891
3012.24,-1.007495
3013.205,-0.9640332
3014.169,0.1171729
3015.133,0.05541016
3016.097,-0.2959961
3017.062,-0.4219775
3018.026,-0.484624
3018.99,-0.2612305
3019.954,0.4470996
3020.918,0.1925977
3021.883,-0.21729
3022.847,0.02365723
3023.811,-0.2343604
3024.775,-0.6377588
3025.74,-0.02350586
3026.704,0.2451465
3027.668,-0.06114258
3028.632,0.1132715
3029.597,0.2101855
3030.561,-0.08959473
3031.525,-0.4217627
3032.489,-0.5602539
3033.454,-0.412041
3034.418,-0.7207764
3035.382,-1.057939
3036.346,-0.6587353
3037.311,0.2152246
3038.275,0.7640479
3039.239,-0.8750976
3040.203,-1.639492
3041.167,-0.7553076
3042.132,-0.294917
3043.096,-0.04036133
3044.06,0.2209229
3045.024,0.05765137
3045.989,-0.238335
3046.953,-0.4708203
3047.917,-0.09235352
3048.881,0.4709326
3049.845,0.4327441
3050.81,0.3172412
3051.774,0.2626904
3052.738,0.05960938
3053.702,-0.007368164
3054.667,0.1190381
3055.631,-0.2840381
3056.595,-0.5873047
3057.559,-0.3789111
3058.524,-0.4215039
3059.488,-0.5545459
3060.452,-0.4458984
3061.416,-0.1727685
3062.381,0.09710938
3063.345,0.2307178
3064.309,-0.08388183
3065.273,-0.579043
3066.238,-0.06286133
3067.202,0.2259766
3068.166,-0.1690039
3069.13,-0.2839063
3070.094,-0.1953809
3071.059,-0.1048486
3072.023,0.01793945
3072.987,0.1424219
3073.951,0.2447998
3074.916,0.06866699
3075.88,-0.1583691
3076.844,0.141875
3077.808,0.229375
3078.772,0.03680664
3079.737,0.1830566
3080.701,0.1652002
3081.665,-0.2340527
3082.629,-0.2609473
3083.594,-0.1190723
3084.558,0.04157227
3085.522,0.3632178
3086.486,0.675581
3087.451,0.7531055
3088.415,0.2978906
3089.379,-0.2576367
3090.343,-0.1306934
3091.308,-0.3254102
3092.272,-0.8450586
3093.236,-0.7536719
3094.2,-0.1922168
3095.165,0.4493115
3096.129,0.6886474
3097.093,0.5039551
3098.057,-0.1855664
3099.021,-0.4044287
3099.986,-0.2849072
3100.95,-0.06181152
3101.914,-0.2419922
3102.878,-0.5100977
3103.843,-0.3418994
3104.807,-0.3943897
3105.771,-0.5640088
3106.735,-0.2907373
3107.699,-0.2532129
3108.664,-0.5218896
3109.628,-0.6006982
3110.592,-0.4991797
3111.556,-0.3193799
3112.521,-0.1800684
3113.485,-0.05404297
3114.449,0.09303711
3115.413,0.1345215
3116.378,0.07789551
3117.342,-0.04172852
3118.306,-0.2594678
3119.27,-0.3134424
3120.235,0.2240576
3121.199,0.2173291
3122.163,-0.1705273
3123.127,0.09201172
3124.092,-0.04420898
3125.056,-0.6170166
3126.02,-0.6183496
3126.984,-0.3780078
3127.948,-0.1692187
3128.913,0.34125
3129.877,0.2884766
3130.841,-0.8733008
3131.805,-0.6172265
3132.77,0.02251465
3133.734,-0.08987305
3134.698,0.08052246
3135.662,0.21875
3136.626,-0.8635401
3137.591,-0.5677881
3138.555,0.4658105
3139.519,0.3565723
3140.483,0.1569385
3141.448,0.1087842
3142.412,-0.1778662
3143.376,-0.245293
3144.34,-0.0847998
3145.305,-0.7429932
3146.269,-0.8538574
3147.233,0.1285742
3148.197,0.5107031
3149.162,0.4343604
3150.126,0.2217969
3151.09,-0.3054394
3152.054,-0.6332812
3153.019,0.03416016
3153.983,-0.01013672
3154.947,-0.3999414
3155.911,-0.3197461
3156.875,-0.1948535
3157.84,-0.1853027
3158.804,-0.3871484
3159.768,-0.07074219
3160.732,0.5197266
3161.697,-0.2066211
3162.661,-0.6151367
3163.625,-0.2745947
3164.589,-0.389292
3165.553,-0.5114697
3166.518,-0.3773193
3167.482,-0.4762354
3168.446,-0.7670605
3169.41,-1.147436
3170.375,-0.6411182
3171.339,-0.0523291
3172.303,-0.2901221
3173.267,-0.2888379
3174.232,-0.0290918
3175.196,-0.008955078
3176.16,0.3496045
3177.124,0.6609082
3178.089,0.08583008
3179.053,-0.7036572
3180.017,-1.146035
3180.981,-0.4511426
3181.946,-0.2984717
3182.91,-0.8783545
3183.874,-0.2273193
3184.838,0.3675439
3185.802,0.3386426
3186.767,-0.07218262
3187.731,-0.5487256
3188.695,-0.7483008
3189.659,-0.0982666
3190.624,0.3774023
3191.588,-0.1445459
3192.552,-0.2467578
3193.516,0.001914063
3194.48,0.199165
3195.445,-0.141748
3196.409,-0.6268848
3197.373,-0.6284912
3198.337,-0.3478809
3199.302,-0.1574023
3200.266,-0.5623438
3201.23,-0.7679346
3202.194,-0.5995459
3203.159,-0.3206396
3204.123,-0.06265625
3205.087,0.0919873
3206.051,-0.001704102
3207.016,-0.09224609
3207.98,-0.05482422
3208.944,0.1561816
3209.908,0.1856738
3210.873,-0.07607422
3211.837,-0.1468408
3212.801,-0.1463916
3213.765,-0.2247607
3214.729,-0.9818848
3215.694,-1.532222
3216.658,-1.102139
3217.622,-0.5713086
3218.586,-0.2137354
3219.551,0.007109375
3220.515,-0.2584326
3221.479,-0.4808789
3222.443,-0.001962891
3223.407,0.2508252
3224.372,0.06945313
3225.336,-0.7218213
3226.3,-0.4461182
3227.264,0.4775732
3228.229,0.5344629
3229.193,0.2992773
3230.157,0.04680176
3231.121,-0.1586328
3232.086,0.1351025
3233.05,0.7009961
3234.014,0.188584
3234.978,-0.2126562
3235.943,-0.1552685
3236.907,-0.1053223
3237.871,0.1984131
3238.835,0.7014551
3239.8,0.7249658
3240.764,0.3548437
3241.728,-0.2273145
3242.692,0.07022949
3243.656,0.3579199
3244.621,0.02888184
3245.585,0.1410303
3246.549,0.588584
3247.513,1.239634
3248.478,1.024976
3249.442,0.5375928
3250.406,0.5000976
3251.37,0.8373682
3252.334,1.173809
3253.299,1.13415
3254.263,0.691709
3255.227,0.4928369
3256.191,1.298413
3257.156,1.413428
3258.12,0.9109766
3259.084,0.7758154
3260.048,0.8914405
3261.013,1.109316
3261.977,1.382519
3262.941,1.342319
3263.905,1.046426
3264.87,0.9792774
3265.834,0.7751465
3266.798,0.4422656
3267.762,0.4454639
3268.727,0.5627051
3269.691,0.7148975
3270.655,1.00814
3271.619,0.954165
3272.583,0.5493262
3273.548,0.5033789
3274.512,0.5909228
3275.476,0.6462647
3276.44,0.6280762
3277.405,0.5781348
3278.369,0.5668701
3279.333,0.7337549
3280.297,0.7061328
3281.261,0.2066162
3282.226,0.01922852
3283.19,0.1110791
3284.154,0.3367334
3285.118,0.3882178
3286.083,0.2452295
3287.047,-0.002363281
3288.011,0.3891016
3288.975,0.8008789
3289.94,0.6988379
3290.904,0.496001
3291.868,0.1942188
3292.832,-0.2259766
3293.797,-0.114585
3294.761,0.194458
3295.725,0.1624365
3296.689,0.432627
3297.654,0.6802832
3298.618,0.2920703
3299.582,0.07699218
3300.546,0.1010205
3301.51,0.1569775
3302.475,-0.2217871
3303.439,-0.6619092
3304.403,-0.3426074
3305.367,0.006347656
3306.332,0.1934961
3307.296,0.4835352
3308.26,0.427085
3309.224,0.1140723
3310.189,0.003076172
3311.153,0.3749609
3312.117,0.8531104
3313.081,0.6253418
3314.046,0.3065771
3315.01,0.09399414
3315.974,-0.0346582
3316.938,-0.4095654
3317.903,-0.7468213
3318.867,0.04529785
3319.831,0.2223096
3320.795,-0.3402734
3321.76,-0.00925293
3322.724,0.008569336
3323.688,-0.2885889
3324.652,0.4018311
3325.616,0.7158008
3326.581,0.2412012
3327.545,-0.2674805
3328.509,-0.2626611
3329.473,0.20104
3330.438,0.3487647
3331.402,0.2111768
3332.366,0.01698731
3333.33,0.1475
3334.294,0.2850733
3335.259,0.2886328
3336.223,0.03653809
3337.187,-0.2909326
3338.151,-0.4912695
3339.116,-0.211919
3340.08,-0.06883301
3341.044,-0.2435693
3342.008,0.07617676
3342.973,0.6012402
3343.937,0.8878711
3344.901,0.2030518
3345.865,-0.2128613
3346.83,0.1685254
3347.794,0.2311426
3348.758,0.3035742
3349.722,0.4175977
3350.687,-0.1216992
3351.651,-0.2885986
3352.615,0.4089941
3353.579,0.5736279
3354.543,0.470083
3355.508,0.2975488
3356.472,-0.007836914
3357.436,-0.2123145
3358.4,-0.1511084
3359.365,0.2844971
3360.329,0.4884375
3361.293,0.3144873
3362.257,0.4759082
3363.221,0.7946826
3364.186,0.99896
3365.15,0.4933642
3366.114,0.3535644
3367.078,0.8386621
3368.043,0.6223291
3369.007,0.4527686
3369.971,0.7128613
3370.935,0.1855762
3371.9,-0.2479687
3372.864,-0.2646875
3373.828,-0.3762256
3374.792,-0.2331836
3375.757,0.2363916
3376.721,0.3782715
3377.685,0.3329639
3378.649,0.2554785
3379.614,0.3831934
3380.578,0.2555078
3381.542,-0.2083203
3382.506,-0.2845068
3383.47,-0.2039893
3384.435,-0.09289063
3385.399,0.2531348
3386.363,0.6390869
3387.327,0.7570605
3388.292,-0.01426758
3389.256,-0.2870068
3390.22,0.3344043
3391.184,0.3735547
3392.148,0.137666
3393.113,-0.03368164
3394.077,0.1958154
3395.041,0.1401318
3396.005,-0.3241846
3396.97,-0.3158301
3397.934,0.1505273
3398.898,0.619375
3399.862,0.008227539
3400.827,-0.2211279
3401.791,0.2449316
3402.755,0.4539648
3403.719,0.2112207
3404.684,-0.3385938
3405.648,-1.007241
3406.612,-1.034399
3407.576,-0.4613721
3408.541,-0.09400879
3409.505,0.03908203
3410.469,-0.005971679
3411.433,-0.1640723
3412.397,-0.1193213
3413.362,0.2073682
3414.326,0.6969336
3415.29,0.5790088
3416.254,0.06954101
3417.219,0.0509668
3418.183,0.2265869
3419.147,0.2749658
3420.111,-0.08654297
3421.075,-0.04397949
3422.04,0.1691455
3423.004,-0.2925977
3423.968,-0.3111963
3424.932,0.2199805
3425.897,0.9380664
3426.861,0.7103223
3427.825,-0.01097656
3428.789,-0.2184961
3429.754,0.1464893
3430.718,0.4641797
3431.682,0.1286133
3432.646,-0.398501
3433.611,-0.5365821
3434.575,0.159668
3435.539,0.3893066
3436.503,0.255874
3437.468,0.146499
3438.432,0.4141211
3439.396,0.6386621
3440.36,0.3970801
3441.324,0.1164551
3442.289,-0.08726563
3443.253,-0.1771729
3444.217,0.1958252
3445.181,0.2999365
3446.146,-0.3246191
3447.11,-0.5992138
3448.074,-0.4460596
3449.038,-0.02379883
3450.002,0.1276416
3450.967,0.08356933
3451.931,-0.03782715
3452.895,-0.3655176
3453.859,-0.4552246
3454.824,-0.2818701
3455.788,-0.5419238
3456.752,-0.3491846
3457.716,0.2931103
3458.681,-0.2465771
3459.645,-0.5573389
3460.609,-0.2751709
3461.573,0.09604981
3462.538,0.1298047
3463.502,-0.08825684
3464.466,-0.005703125
3465.43,0.06819824
3466.395,0.136665
3467.359,0.3677295
3468.323,0.5460498
3469.287,0.4219141
3470.251,-0.4717676
3471.216,-0.2975562
3472.18,0.2888232
3473.144,-0.2585449
3474.108,-0.3648022
3475.073,-0.05681397
3476.037,0.08223145
3477.001,-0.4384399
3477.965,-0.9326367
3478.929,-0.5606787
3479.894,0.1821338
3480.858,0.6019726
3481.822,0.3361426
3482.786,-0.1546509
3483.751,-0.3920459
3484.715,-0.2169482
3485.679,-0.7069873
3486.643,-0.7897632
3487.608,0.03170166
3488.572,0.06712647
3489.536,-0.1003638
3490.5,-0.1568945
3491.465,-0.5874658
3492.429,-0.9957569
3493.393,-1.212781
3494.357,-1.09102
3495.322,-0.5068896
3496.286,0.2186914
3497.25,0.343435
3498.214,0.4033374
3499.178,0.3348731
3500.143,-0.1300293
