999.8845,7.40293
1000.849,6.268789
1001.813,5.816089
1002.777,5.978916
1003.741,6.451113
1004.706,6.892114
1005.67,6.944214
1006.634,6.248936
1007.598,5.874272
1008.563,5.875576
1009.527,6.299956
1010.491,6.857056
1011.455,7.087041
1012.42,6.84477
1013.384,6.421504
1014.348,5.810469
1015.312,5.806187
1016.276,6.014917
1017.241,5.698828
1018.205,5.24435
1019.169,5.223242
1020.133,5.675752
1021.098,5.999688
1022.062,6.059278
1023.026,5.564375
1023.99,5.057246
1024.955,4.838179
1025.919,4.878672
1026.883,5.124868
1027.847,5.460517
1028.812,5.573457
1029.776,5.512456
1030.74,5.198501
1031.704,5.035703
1032.668,5.317959
1033.633,5.733042
1034.597,5.991479
1035.561,5.933965
1036.525,5.275088
1037.49,4.573213
1038.454,4.580396
1039.418,4.673227
1040.382,4.745034
1041.347,4.747563
1042.311,4.68604
1043.275,4.656806
1044.239,4.814463
1045.203,4.825205
1046.168,4.362725
1047.132,4.131963
1048.096,4.205288
1049.06,4.347505
1050.025,4.420366
1050.989,4.562222
1051.953,4.98315
1052.917,5.01394
1053.882,4.213355
1054.846,4.077705
1055.81,4.391787
1056.774,4.37772
1057.739,3.894785
1058.703,3.544243
1059.667,3.667471
1060.631,3.528711
1061.595,3.137632
1062.56,3.27667
1063.524,3.656665
1064.488,3.864346
1065.452,3.845513
1066.417,3.829624
1067.381,3.872778
1068.345,3.827388
1069.309,3.741455
1070.274,3.653389
1071.238,3.562139
1072.202,3.456802
1073.166,3.326045
1074.13,3.184443
1075.095,3.120357
1076.059,3.418994
1077.023,4.197012
1077.987,6.323843
1078.952,7.522427
1079.916,6.387793
1080.88,4.36814
1081.844,3.503555
1082.809,3.401103
1083.773,3.493843
1084.737,3.553091
1085.701,3.265283
1086.666,3.437285
1087.63,4.128819
1088.594,4.254189
1089.558,3.285337
1090.522,2.415596
1091.487,2.886987
1092.451,3.277271
1093.415,3.211909
1094.379,3.009233
1095.344,2.785796
1096.308,2.585654
1097.272,2.4679
1098.236,2.566963
1099.201,3.041343
1100.165,3.13041
1101.129,2.86814
1102.093,2.713306
1103.057,2.632925
1104.022,2.553672
1104.986,2.435185
1105.95,2.249961
1106.914,1.999502
1107.879,2.006724
1108.843,2.172534
1109.807,2.27415
1110.771,2.424521
1111.736,2.828916
1112.7,3.089692
1113.664,2.741636
1114.628,2.041685
1115.593,1.892554
1116.557,2.062651
1117.521,2.30355
1118.485,2.471895
1119.449,2.518755
1120.414,2.43374
1121.378,2.264639
1122.342,2.133081
1123.306,2.170713
1124.271,2.186894
1125.235,2.039507
1126.199,1.835488
1127.163,1.619473
1128.128,1.607075
1129.092,1.774761
1130.056,1.89063
1131.02,1.834414
1131.984,1.84731
1132.949,2.066992
1133.913,1.772539
1134.877,1.238853
1135.841,1.136733
1136.806,1.300737
1137.77,1.166943
1138.734,0.6866797
1139.698,0.694541
1140.663,1.197021
1141.627,1.618345
1142.591,1.796094
1143.555,1.270942
1144.52,0.6865185
1145.484,0.5984619
1146.448,1.078892
1147.412,1.87291
1148.376,2.563735
1149.341,1.869868
1150.305,1.254141
1151.269,1.625923
1152.233,1.872349
1153.198,1.60812
1154.162,1.086909
1155.126,0.6766748
1156.09,0.587666
1157.055,1.151743
1158.019,1.539595
1158.983,1.567183
1159.947,1.474785
1160.912,1.307988
1161.876,0.9771729
1162.84,0.6450781
1163.804,0.8182226
1164.769,1.795903
1165.733,2.184834
1166.697,1.84957
1167.661,1.0804
1168.625,0.3569727
1169.59,0.3435498
1170.554,0.7495801
1171.518,1.025308
1172.482,1.038437
1173.447,0.8471192
1174.411,0.5891699
1175.375,0.6154883
1176.339,0.7758496
1177.304,1.144053
1178.268,1.226304
1179.232,0.8247315
1180.196,0.4195752
1181.161,0.5940381
1182.125,0.9386523
1183.089,1.132515
1184.053,1.008325
1185.017,0.342876
1185.982,0.3062451
1186.946,0.8479834
1187.91,1.278638
1188.874,1.216118
1189.839,0.756543
1190.803,-0.2019482
1191.767,-0.280918
1192.731,0.5218994
1193.696,0.9071338
1194.66,0.9797949
1195.624,0.9372852
1196.588,0.8112891
1197.552,0.4956934
1198.517,0.1208105
1199.481,0.4045996
1200.445,0.9561474
1201.409,0.6023291
1202.374,0.1545508
1203.338,-0.04434082
1204.302,-0.02877441
1205.266,0.1295508
1206.231,0.3732812
1207.195,0.606748
1208.159,0.6881885
1209.123,0.3084912
1210.088,0.2158838
1211.052,0.6878809
1212.016,0.9966943
1212.98,1.016533
1213.944,0.6380517
1214.909,0.05988281
1215.873,-0.1157178
1216.837,0.4224121
1217.801,0.5814795
1218.766,0.2469189
1219.73,-0.1209082
1220.694,-0.3453516
1221.658,-0.07795899
1222.623,0.3275244
1223.587,0.3862598
1224.551,0.08613281
1225.515,-0.172998
1226.479,-0.231792
1227.444,0.521333
1228.408,1.181982
1229.372,1.255688
1230.336,0.9873779
1231.301,0.5198095
1232.265,0.1074072
1233.229,-0.04890625
1234.193,-0.03234375
1235.158,0.07158691
1236.122,0.1249854
1237.086,-0.03001953
1238.05,0.1237891
1239.015,0.4367774
1239.979,0.3471533
1240.943,-0.03864258
1241.907,-0.2391064
1242.871,-0.1169873
1243.836,-0.0130127
1244.8,0.03746094
1245.764,-0.3176562
1246.728,-0.6540576
1247.693,-0.3703613
1248.657,0.03679688
1249.621,0.1795557
1250.585,0.1837647
1251.55,0.2875684
1252.514,0.4486865
1253.478,0.7244189
1254.442,0.780625
1255.406,-0.07023437
1256.371,-0.2137939
1257.335,0.4657227
1258.299,0.7713574
1259.263,0.5048047
1260.228,0.2610351
1261.192,0.3108789
1262.156,0.2868555
1263.12,0.02879395
1264.085,-0.1887939
1265.049,-0.2758642
1266.013,-0.1603125
1266.977,0.02608887
1267.942,0.2598193
1268.906,0.4162305
1269.87,0.3636231
1270.834,0.2037793
1271.798,0.2163184
1272.763,0.2394922
1273.727,-0.08370117
1274.691,-0.2573828
1275.655,-0.07285156
1276.62,0.1841797
1277.584,0.3680567
1278.548,0.3498877
1279.512,0.1193896
1280.477,-0.04203125
1281.441,0.04930664
1282.405,0.1279834
1283.369,0.1428467
1284.333,-0.1469141
1285.298,-0.5008838
1286.262,-0.5882813
1287.226,-0.478252
1288.19,-0.3428515
1289.155,-0.2827685
1290.119,-0.4086133
1291.083,-0.5910449
1292.047,-0.4474463
1293.012,-0.3268555
1293.976,-0.4961377
1294.94,-0.6072657
1295.904,-0.5213476
1296.869,-0.5747558
1297.833,-0.8742676
1298.797,-0.9339404
1299.761,-0.3746191
1300.725,-0.07500488
1301.69,-0.4674658
1302.654,-0.9367139
1303.618,-1.35394
1304.582,-1.293188
1305.547,-0.9843946
1306.511,-0.7769531
1307.475,-0.640752
1308.439,-0.3111377
1309.404,0.1112158
1310.368,-0.03933594
1311.332,-0.3934375
1312.296,-0.1530469
1313.26,-0.03001465
1314.225,-0.4562549
1315.189,-0.7515234
1316.153,-0.6375684
1317.117,-0.2302002
1318.082,0.2199414
1319.046,0.2504395
1320.01,-0.5742871
1320.974,-0.8057666
1321.939,-0.07610352
1322.903,0.03011719
1323.867,-0.2217481
1324.831,-0.3984131
1325.796,-0.4299609
1326.76,-0.3382861
1327.724,-0.1809229
1328.688,-0.09889648
1329.652,-0.07209961
1330.617,0.02767578
1331.581,0.04410645
1332.545,-0.294165
1333.509,-0.3965332
1334.474,-0.04605957
1335.438,0.05833496
1336.402,-0.2655517
1337.366,-0.5851416
1338.331,-0.5904883
1339.295,-0.3294531
1340.259,0.2783545
1341.223,0.6584326
1342.188,0.7978857
1343.152,0.4042139
1344.116,-0.1021387
1345.08,-0.2658008
1346.044,-0.1224561
1347.009,0.2017871
1347.973,0.462749
1348.937,0.2456982
1349.901,-0.1032129
1350.866,-0.02279785
1351.83,0.2112793
1352.794,0.6500146
1353.758,0.6157178
1354.723,0.143418
1355.687,0.1207861
1356.651,0.5837598
1357.615,0.7720703
1358.579,0.423374
1359.544,0.226294
1360.508,0.3425537
1361.472,0.2778369
1362.436,0.1110645
1363.401,-0.1597412
1364.365,-0.4708105
1365.329,-0.7597852
1366.293,-0.9030322
1367.258,-0.8315283
1368.222,-0.4914209
1369.186,0.05777832
1370.15,0.3097852
1371.115,-0.2354346
1372.079,-0.6580322
1373.043,-0.7347851
1374.007,-0.7584424
1374.971,-0.6928369
1375.936,-0.2595313
1376.9,0.187793
1377.864,-0.1147461
1378.828,-0.8627636
1379.793,-0.6610352
1380.757,0.1775879
1381.721,-0.04720215
1382.685,-0.5975537
1383.65,-0.7328027
1384.614,-0.6019873
1385.578,-0.1370703
1386.542,0.002636719
1387.506,-0.3307764
1388.471,-0.7461377
1389.435,-0.9318897
1390.399,-0.8465772
1391.363,-0.455
1392.328,-0.2398145
1393.292,-0.2728809
1394.256,-0.4646045
1395.22,-0.7410742
1396.185,-1.241416
1397.149,-1.420249
1398.113,-0.606626
1399.077,0.2070654
1400.042,-0.1678906
1401.006,-0.7998828
1401.97,-0.3333594
1402.934,0.1853857
1403.898,-0.1325977
1404.863,-0.2371289
1405.827,-0.08365235
1406.791,-0.1231104
1407.755,-0.2244482
1408.72,0.05606445
1409.684,0.5281641
1410.648,0.6514599
1411.612,0.3882617
1412.577,0.1291699
1413.541,-0.06613281
1414.505,0.1382715
1415.469,0.2718457
1416.433,-0.172915
1417.398,-0.4452588
1418.362,-0.3293164
1419.326,-0.05613281
1420.29,0.181748
1421.255,0.2416406
1422.219,0.0830664
1423.183,-0.06327637
1424.147,-0.1208936
1425.112,-0.3255273
1426.076,-0.5203467
1427.04,-0.08646972
1428.004,0.3985108
1428.969,0.3720215
1429.933,0.2575781
1430.897,0.3754297
1431.861,0.5908448
1432.825,0.700166
1433.79,0.6880322
1434.754,0.5435938
1435.718,0.3729639
1436.682,0.1663916
1437.647,0.1561084
1438.611,0.2125781
1439.575,0.00444336
1440.539,-0.2946289
1441.504,-0.6334375
1442.468,-0.6664112
1443.432,-0.04240234
1444.396,0.8666162
1445.36,1.232871
1446.325,1.094814
1447.289,0.2854492
1448.253,-0.2860742
1449.217,-0.08744141
1450.182,0.07681641
1451.146,0.1574658
1452.11,0.1758545
1453.074,0.1704785
1454.039,0.1710449
1455.003,0.1830664
1455.967,0.2085693
1456.931,0.2222852
1457.896,0.08878418
1458.86,-0.1458936
1459.824,-0.4195313
1460.788,-0.4935547
1461.752,-0.1560205
1462.717,0.03074219
1463.681,-0.04125488
1464.645,-0.09772949
1465.609,-0.05813965
1466.574,-0.08295898
1467.538,-0.1761572
1468.502,-0.06622559
1469.466,0.2727051
1470.431,0.3010205
1471.395,0.1053516
1472.359,-0.2523047
1473.323,-0.3599609
1474.287,0.2969043
1475.252,0.5588526
1476.216,0.07452148
1477.18,-0.3614111
1478.144,-0.3085205
1479.109,-0.04900391
1480.073,0.1825732
1481.037,0.05552734
1482.001,-0.5349023
1482.966,-0.4620215
1483.93,-0.03710449
1484.894,0.07162598
1485.858,0.05388184
1486.823,0.07305176
1487.787,0.0222998
1488.751,-0.1442481
1489.715,-0.1027979
1490.68,0.2791553
1491.644,0.5714062
1492.608,0.4962646
1493.572,0.2915186
1494.536,-0.03322266
1495.501,0.1244385
1496.465,0.4309082
1497.429,0.08182129
1498.393,-0.3513477
1499.358,-0.2549121
1500.322,-0.08691894
1501.286,-0.2391748
1502.25,-0.5306396
1503.215,-0.6833984
1504.179,-0.6560156
1505.143,-0.4643897
1506.107,-0.1911475
1507.072,0.3703467
1508.036,0.2755615
1509,-0.2052393
1509.964,-0.6470215
1510.928,-0.7995801
1511.893,-0.3522021
1512.857,0.3769141
1513.821,1.089331
1514.785,1.187007
1515.75,0.2884375
1516.714,-0.506626
1517.678,-0.2190625
1518.642,0.2189111
1519.607,0.5644727
1520.571,0.7680469
1521.535,0.8314453
1522.499,0.3552393
1523.464,-0.06935547
1524.428,0.4611768
1525.392,1.126377
1526.356,1.07563
1527.32,0.8438379
1528.285,1.106719
1529.249,1.281045
1530.213,0.8364258
1531.177,0.5487646
1532.142,0.8912939
1533.106,0.8159717
1534.07,0.4343555
1535.034,-0.03442871
1535.999,-0.2047656
1536.963,0.5675098
1537.927,1.274907
1538.891,0.9797217
1539.855,0.2952539
1540.82,0.1013428
1541.784,0.1299268
1542.748,0.1168652
1543.712,0.1405811
1544.677,0.2845557
1545.641,0.2912402
1546.605,0.1781494
1547.569,0.4005957
1548.534,0.7169238
1549.498,0.8011035
1550.462,0.8037451
1551.426,0.8937061
1552.391,0.980918
1553.355,0.9562012
1554.319,0.8820605
1555.283,0.8300586
1556.247,0.7552392
1557.212,0.5691943
1558.176,0.7543848
1559.14,1.264194
1560.104,1.012461
1561.069,0.5837793
1562.033,0.6479346
1562.997,0.8469873
1563.961,0.8674902
1564.926,0.9434033
1565.89,1.214614
1566.854,1.399634
1567.818,1.300581
1568.782,1.045537
1569.747,0.6653125
1570.711,0.6856543
1571.675,1.129199
1572.639,1.50666
1573.604,1.837002
1574.568,2.110664
1575.532,2.396689
1576.496,2.818233
1577.461,2.946494
1578.425,2.686133
1579.389,2.696895
1580.353,3.25644
1581.318,3.66126
1582.282,3.675059
1583.246,4.318394
1584.21,5.571152
1585.174,5.869019
1586.139,5.953291
1587.103,6.966245
1588.067,7.906889
1589.031,8.317031
1589.996,8.504936
1590.96,8.596172
1591.924,8.641132
1592.888,8.609575
1593.853,8.369815
1594.817,7.878457
1595.781,7.223364
1596.745,6.567817
1597.709,6.555864
1598.674,6.683931
1599.638,6.091568
1600.602,5.310669
1601.566,4.394556
1602.531,3.744634
1603.495,3.39812
1604.459,3.333081
1605.423,3.295581
1606.388,2.862505
1607.352,2.182461
1608.316,1.725855
1609.28,1.563047
1610.245,1.578257
1611.209,1.473315
1612.173,0.7843408
1613.137,0.3623877
1614.101,0.8542334
1615.066,1.286157
1616.03,1.62228
1616.994,1.497734
1617.958,1.141138
1618.923,0.930376
1619.887,0.7175146
1620.851,0.2406494
1621.815,0.004946289
1622.78,0.4517627
1623.744,0.9865772
1624.708,1.066323
1625.672,0.9364551
1626.636,0.6969385
1627.601,0.5514551
1628.565,0.4723193
1629.529,0.473374
1630.493,0.5677832
1631.458,0.9406397
1632.422,1.145298
1633.386,0.7930469
1634.35,0.3609131
1635.315,0.1651074
1636.279,0.3091699
1637.243,0.6780469
1638.207,0.8687989
1639.172,0.7530176
1640.136,0.6047412
1641.1,0.5037988
1642.064,0.5982031
1643.028,0.7563183
1643.993,0.8720166
1644.957,0.8309961
1645.921,0.575332
1646.885,0.2363818
1647.85,-0.09489746
1648.814,-0.168584
1649.778,-0.04552246
1650.742,0.1312305
1651.707,0.2538916
1652.671,0.24396
1653.635,0.1453125
1654.599,0.06726074
1655.563,0.06095703
1656.528,0.2136621
1657.492,0.4104932
1658.456,0.6591895
1659.42,0.6062353
1660.385,0.34375
1661.349,0.1493897
1662.313,-0.00821289
1663.277,-0.3090625
1664.242,-0.4131885
1665.206,-0.01593262
1666.17,0.3792725
1667.134,0.3985742
1668.099,0.2712891
1669.063,0.1739258
1670.027,0.008701172
1670.991,-0.2012158
1671.955,0.005322265
1672.92,0.4067334
1673.884,0.01947266
1674.848,-0.3964111
1675.812,0.09319336
1676.777,0.4295068
1677.741,0.2059131
1678.705,0.1763379
1679.669,0.3731738
1680.634,0.2961719
1681.598,0.06852051
1682.562,0.1740332
1683.526,0.3793359
1684.49,0.1864014
1685.455,-0.1548633
1686.419,-0.2122705
1687.383,-0.005268555
1688.347,0.5091602
1689.312,0.6376465
1690.276,0.0512207
1691.24,-0.3239062
1692.204,-0.472959
1693.169,-0.1345605
1694.133,0.2423145
1695.097,0.3167725
1696.061,0.3040137
1697.026,0.3195313
1697.99,0.2478662
1698.954,0.1464502
1699.918,0.4713184
1700.882,1.093457
1701.847,1.054365
1702.811,0.3541992
1703.775,0.1940527
1704.739,0.4234863
1705.704,0.7533349
1706.668,0.8689209
1707.632,0.2578906
1708.596,-0.03184082
1709.561,0.1932764
1710.525,0.09878907
1711.489,-0.1082764
1712.453,0.3017334
1713.417,0.6636377
1714.382,-0.006796875
1715.346,-0.5812793
1716.31,-0.1920703
1717.274,0.2155469
1718.239,0.01831055
1719.203,-0.01961426
1720.167,0.4238379
1721.131,0.6945752
1722.096,0.6476026
1723.06,0.2940576
1724.024,-0.150459
1724.988,-0.2634277
1725.953,-0.2221582
1726.917,-0.1974365
1727.881,0.2893066
1728.845,1.179351
1729.809,0.8877392
1730.774,-0.002294922
1731.738,0.008081054
1732.702,0.5164062
1733.666,0.7020947
1734.631,0.4025098
1735.595,-0.2136865
1736.559,-0.4764355
1737.523,0.03730957
1738.488,0.3799512
1739.452,0.146709
1740.416,0.04412598
1741.38,0.1334668
1742.344,0.307876
1743.309,0.4239111
1744.273,0.3662549
1745.237,0.4051904
1746.201,0.7052441
1747.166,0.7187939
1748.13,0.4392822
1749.094,0.288667
1750.058,0.2799463
1751.023,0.1931348
1751.987,0.1056641
1752.951,0.184541
1753.915,0.2777051
1754.88,0.2202197
1755.844,0.2300342
1756.808,0.4350977
1757.772,0.46604
1758.736,0.1696826
1759.701,-0.04350097
1760.665,-0.1070605
1761.629,0.1882715
1762.593,0.4818164
1763.558,0.3735352
1764.522,0.4156299
1765.486,0.8076025
1766.45,1.126616
1767.415,1.175806
1768.379,0.4973975
1769.343,-0.2668506
1770.307,-0.1321729
1771.271,0.403335
1772.236,0.575586
1773.2,0.4347217
1774.164,0.1521728
1775.128,-0.04322265
1776.093,-0.006757813
1777.057,0.2841846
1778.021,0.8397266
1778.985,1.05248
1779.95,1.00416
1780.914,0.8625733
1781.878,0.718623
1782.842,0.540747
1783.807,0.645664
1784.771,1.032436
1785.735,0.8728321
1786.699,0.4116797
1787.663,0.242627
1788.628,0.2822168
1789.592,0.375
1790.556,0.3414258
1791.52,0.1344482
1792.485,0.07739746
1793.449,0.3214892
1794.413,0.6874316
1795.377,0.9543115
1796.342,0.518042
1797.306,-0.3303857
1798.27,-0.07014649
1799.234,0.6345361
1800.198,1.008149
1801.163,1.139575
1802.127,0.8178076
1803.091,0.7201221
1804.055,0.8011523
1805.02,0.7170801
1805.984,0.469707
1806.948,-0.008691406
1807.912,-0.3550928
1808.877,-0.3915527
1809.841,-0.03246094
1810.805,0.5274903
1811.769,0.7451367
1812.734,0.6172559
1813.698,0.6787012
1814.662,0.861792
1815.626,0.6677295
1816.59,0.2162744
1817.555,-0.1465332
1818.519,-0.2867871
1819.483,-0.09779785
1820.448,0.2064258
1821.412,0.5415039
1822.376,0.8120899
1823.34,1.002241
1824.304,0.7831006
1825.269,0.6397705
1826.233,1.00249
1827.197,1.099902
1828.161,0.8280811
1829.126,0.3405518
1830.09,-0.04235351
1831.054,0.3695508
1832.018,0.905498
1832.983,0.6177734
1833.947,0.002744141
1834.911,-0.2662793
1835.875,0.09252442
1836.839,0.9302441
1837.804,1.19752
1838.768,0.702876
1839.732,0.6082568
1840.696,0.8691113
1841.661,0.7769189
1842.625,0.5744238
1843.589,0.6259668
1844.553,0.6399853
1845.518,0.4223145
1846.482,0.1881104
1847.446,-0.01803711
1848.41,0.1375928
1849.375,0.4162061
1850.339,0.6130908
1851.303,0.6147265
1852.267,0.3688184
1853.231,0.2221826
1854.196,0.2345264
1855.16,0.3819971
1856.124,0.4526562
1857.088,-0.01139648
1858.053,-0.4134424
1859.017,-0.009609375
1859.981,0.6009521
1860.945,0.7657129
1861.91,0.5940283
1862.874,0.2288818
1863.838,0.218877
1864.802,0.5509131
1865.766,0.2206055
1866.731,-0.3814453
1867.695,-0.6282275
1868.659,-0.6399805
1869.623,-0.4315332
1870.588,0.006440429
1871.552,0.6518213
1872.516,0.8471826
1873.48,0.7538623
1874.445,0.6154687
1875.409,0.44104
1876.373,0.1601416
1877.337,0.02083496
1878.302,0.04277344
1879.266,0.07371582
1880.23,0.126167
1881.194,0.259165
1882.158,0.4523926
1883.123,0.6940479
1884.087,0.8840722
1885.051,0.905083
1886.015,0.6245801
1886.98,0.1298731
1887.944,0.1767627
1888.908,0.7820508
1889.872,0.7027929
1890.837,0.200293
1891.801,-0.0180957
1892.765,0.02107422
1893.729,0.4277002
1894.693,0.3333496
1895.658,-0.6573291
1896.622,-0.5442285
1897.586,0.1562598
1898.55,0.4081933
1899.515,0.5202978
1900.479,0.7175586
1901.443,0.6419141
1902.407,0.2646143
1903.372,0.4829199
1904.336,0.9604541
1905.3,0.7301611
1906.264,0.2361719
1907.229,-0.0002685547
1908.193,0.205957
1909.157,0.7409766
1910.121,0.9390869
1911.085,0.627041
1912.05,0.1833203
1913.014,-0.1241553
1913.978,-0.06286621
1914.942,0.3959766
1915.907,1.093354
1916.871,1.406099
1917.835,0.8966699
1918.799,0.4823145
1919.764,0.4827588
1920.728,0.8222656
1921.692,1.200576
1922.656,0.6250439
1923.62,0.01197754
1924.585,0.2294336
1925.549,0.4275976
1926.513,0.4543848
1927.477,0.638833
1928.442,0.8015723
1929.406,0.4510498
1930.37,0.06927735
1931.334,-0.03680664
1932.299,0.2749951
1933.263,0.9073926
1934.227,0.5556347
1935.191,-0.3309277
1936.156,-0.2906494
1937.12,0.1988037
1938.084,0.2939209
1939.048,0.0789502
1940.012,-0.2068555
1940.977,-0.3874365
1941.941,-0.3428174
1942.905,0.06595215
1943.869,0.4725684
1944.834,0.04776367
1945.798,-0.6738526
1946.762,-0.6732227
1947.726,-0.190708
1948.691,0.5083154
1949.655,0.7284229
1950.619,0.2559961
1951.583,-0.1588477
1952.547,-0.4265723
1953.512,-0.3699853
1954.476,-0.2069141
1955.44,-0.09740234
1956.404,-0.01119629
1957.369,0.0390332
1958.333,0.1328174
1959.297,0.2425293
1960.261,0.4752051
1961.226,0.4511572
1962.19,-0.4239404
1963.154,-0.6427197
1964.118,-0.06056641
1965.083,0.1441455
1966.047,0.02378418
1967.011,-0.01453125
1967.975,-0.1208789
1968.939,-0.5546191
1969.904,-0.5820459
1970.868,-0.0484375
1971.832,0.3636182
1972.796,0.4812305
1973.761,0.4834473
1974.725,0.464458
1975.689,0.4668604
1976.653,0.3383936
1977.618,0.06261719
1978.582,0.02585937
1979.546,0.2804248
1980.51,0.4123682
1981.474,0.2897998
1982.439,-0.1013428
1983.403,-0.3789648
1984.367,-0.1039209
1985.331,0.1910303
1986.296,0.2375928
1987.26,0.1345166
1988.224,-0.0723584
1989.188,-0.1569482
1990.153,-0.1995996
1991.117,-0.2263574
1992.081,-0.1614307
1993.045,0.04411133
1994.01,0.005981445
1994.974,-0.2220557
1995.938,0.04503906
1996.902,0.3919483
1997.866,0.2984424
1998.831,0.1099951
1999.795,-0.09754395
2000.759,-0.0589502
2001.723,0.1273584
2002.688,0.09253418
2003.652,-0.01887695
2004.616,-0.01841309
2005.58,-0.05803711
2006.545,-0.2012354
2007.509,-0.2447363
2008.473,-0.1309521
2009.437,0.1274951
2010.401,0.3742481
2011.366,0.4058057
2012.33,0.5425488
2013.294,0.9163525
2014.258,0.7291553
2015.223,0.02143066
2016.187,-0.002255859
2017.151,0.4749268
2018.115,0.4319092
2019.08,0.1394775
2020.044,0.03319336
2021.008,-0.2965479
2021.972,-0.8717627
2022.937,-0.6222022
2023.901,0.4300244
2024.865,0.7230713
2025.829,0.4709375
2026.793,0.20229
2027.758,-0.0105957
2028.722,-0.1150439
2029.686,-0.1356836
2030.65,-0.09429199
2031.615,-0.07242188
2032.579,-0.02700195
2033.543,0.1379736
2034.507,0.1765625
2035.472,-0.07098144
2036.436,-0.1744385
2037.4,-0.1346924
2038.364,-0.2818652
2039.328,-0.362124
2040.293,0.07708496
2041.257,0.370708
2042.221,0.1970215
2043.185,0.2116113
2044.15,0.3478613
2045.114,0.08187012
2046.078,-0.1747266
2047.042,0.1125098
2048.007,0.2738184
2048.971,0.08086914
2049.935,-0.04619141
2050.899,-0.06279785
2051.864,-0.04416992
2052.828,-0.07066406
2053.792,-0.2150391
2054.756,-0.3951318
2055.72,-0.5307178
2056.685,-0.4039063
2057.649,-0.1882764
2058.613,-0.3241748
2059.577,-0.5527685
2060.542,-0.5482471
2061.506,-0.1726953
2062.47,0.4194824
2063.434,0.562417
2064.399,0.2635742
2065.363,0.02724609
2066.327,-0.05030762
2067.291,-0.02721191
2068.256,-0.08859863
2069.22,-0.3081152
2070.184,-0.4220801
2071.148,-0.3126025
2072.113,0.1103857
2073.077,0.3257373
2074.041,-0.440166
2075.005,-1.003276
2075.969,-0.5042578
2076.934,-0.1458154
2077.898,-0.2845361
2078.862,-0.2459473
2079.826,-0.1457666
2080.791,-0.3041504
2081.755,-0.2756104
2082.719,0.2307031
2083.683,0.5122021
2084.647,0.3448389
2085.612,0.08611328
2086.576,-0.1495898
2087.54,-0.1636035
2088.504,-0.153042
2089.469,-0.2701611
2090.433,-0.2476611
2091.397,-0.07846192
2092.361,-0.05279785
2093.326,-0.07413574
2094.29,-0.006479492
2095.254,0.171958
2096.218,0.5616602
2097.183,0.5258985
2098.147,0.1085059
2099.111,0.205459
2100.075,0.3733691
2101.04,-0.04405762
2102.004,-0.2378272
2102.968,0.2594189
2103.932,0.3971728
2104.896,0.2511523
2105.861,0.1151221
2106.825,0.006069336
2107.789,-0.1619043
2108.753,-0.1275928
2109.718,0.1802783
2110.682,0.3083203
2111.646,0.1772363
2112.61,-0.7336328
2113.574,-1.234492
2114.539,-0.1826856
2115.503,0.4204785
2116.467,0.286416
2117.431,-0.04624512
2118.396,-0.2954297
2119.36,-0.2757568
2120.324,-0.01428223
2121.288,0.60396
2122.253,0.7517774
2123.217,0.439624
2124.181,0.03101563
2125.145,-0.2423779
2126.11,-0.1437061
2127.074,-0.004145508
2128.038,0.03684082
2129.002,-0.1359766
2129.967,-0.3537598
2130.931,-0.04595215
2131.895,0.2411523
2132.859,-0.2384619
2133.823,-0.6214795
2134.788,-0.5394385
2135.752,-0.1098145
2136.716,0.3013135
2137.68,0.1731152
2138.645,-0.1113672
2139.609,-0.1869141
2140.573,-0.06821289
2141.537,0.1216992
2142.501,0.1411865
2143.466,0.0605957
2144.43,0.1343799
2145.394,0.08609375
2146.358,-0.2564355
2147.323,-0.2792725
2148.287,0.02930664
2149.251,0.06931641
2150.215,-0.1698828
2151.18,-0.5463135
2152.144,-0.6202637
2153.108,-0.2596924
2154.072,-0.1759473
2155.037,-0.3875488
2156.001,-0.2521729
2156.965,0.08880371
2157.929,0.2881836
2158.894,0.06876465
2159.858,-0.4680078
2160.822,-0.5459424
2161.786,-0.2063867
2162.75,-0.04880371
2163.715,-0.1272363
2164.679,-0.3013721
2165.643,-0.4125342
2166.607,-0.3775098
2167.572,-0.1639893
2168.536,0.006621094
2169.5,-0.2046631
2170.464,-0.6580566
2171.428,-0.9965625
2172.393,-0.5165674
2173.357,0.4694482
2174.321,0.3259863
2175.285,-0.4047656
2176.25,-0.297793
2177.214,-0.1460449
2178.178,-0.5263135
2179.142,-0.6068555
2180.107,-0.310957
2181.071,-0.365249
2182.035,-0.4391064
2182.999,-0.01944336
2183.964,0.209126
2184.928,-0.06610352
2185.892,-0.4036084
2186.856,-0.5479541
2187.821,-0.3566162
2188.785,-0.1124268
2189.749,-0.147832
2190.713,-0.469458
2191.677,-0.8776904
2192.642,-0.891543
2193.606,-0.6177588
2194.57,-0.4313428
2195.534,-0.2338574
2196.499,-0.001860352
2197.463,0.09006348
2198.427,0.005209961
2199.391,-0.2165186
2200.355,-0.3880322
2201.32,-0.2970361
2202.284,-0.01825195
2203.248,0.2957666
2204.212,0.3908301
2205.177,0.3015479
2206.141,0.2376172
2207.105,0.04770508
2208.069,-0.3322119
2209.034,-0.5767334
2209.998,-0.5687354
2210.962,-0.335874
2211.926,-0.2109229
2212.891,-0.5423096
2213.855,-0.6402783
2214.819,-0.2098682
2215.783,0.2281445
2216.748,0.3366455
2217.712,-0.1672559
2218.676,-0.4554785
2219.64,0.1048438
2220.604,0.3533984
2221.569,-0.04480469
2222.533,-0.4912012
2223.497,-0.6586719
2224.461,-0.3838867
2225.426,-0.2108984
2226.39,-0.4079004
2227.354,-0.4574805
2228.318,-0.3476855
2229.282,-0.4535107
2230.247,-0.6118554
2231.211,-0.5777735
2232.175,-0.3959961
2233.139,-0.2077246
2234.104,-0.2119336
2235.068,-0.3539697
2236.032,-0.4953906
2236.996,-0.3866797
2237.961,-0.06168945
2238.925,-0.1299268
2239.889,-0.4441358
2240.853,-0.3382422
2241.818,-0.03035644
2242.782,0.1250928
2243.746,-0.06594238
2244.71,-0.4200439
2245.675,-0.2935986
2246.639,-0.02452148
2247.603,-0.2385254
2248.567,-0.5951269
2249.531,-0.7494922
2250.496,-0.4798144
2251.46,-0.06346191
2252.424,0.02299805
2253.388,-0.1767285
2254.353,-0.5089893
2255.317,-0.545542
2256.281,-0.339668
2257.245,-0.4173731
2258.209,-0.5181299
2259.174,-0.1057031
2260.138,0.1484033
2261.102,-0.01680664
2262.066,-0.1188232
2263.031,-0.06438965
2263.995,0.1259522
2264.959,0.1181494
2265.923,-0.3454004
2266.888,-0.4061914
2267.852,-0.067417
2268.816,-0.04702149
2269.78,-0.2486816
2270.745,-0.5728515
2271.709,-0.5350195
2272.673,-0.07723632
2273.637,-0.1210791
2274.602,-0.4250781
2275.566,-0.4422949
2276.53,-0.1975879
2277.494,0.3958057
2278.458,0.6204736
2279.423,0.4427783
2280.387,-0.1244922
2281.351,-0.5090918
2282.315,-0.02509766
2283.28,0.408042
2284.244,0.533335
2285.208,0.1683447
2286.172,-0.2773047
2287.136,0.03632324
2288.101,0.3014111
2289.065,-0.07042969
2290.029,-0.2438379
2290.993,-0.2384326
2291.958,-0.6299024
2292.922,-0.8807178
2293.886,-0.3406494
2294.85,-0.001748047
2295.815,-0.1236328
2296.779,-0.2604932
2297.743,-0.3556055
2298.707,-0.3053369
2299.672,-0.234082
2300.636,-0.2320801
2301.6,-0.2991162
2302.564,-0.3571143
2303.529,-0.1139014
2304.493,0.2024707
2305.457,0.3850684
2306.421,0.2396729
2307.385,-0.2367383
2308.35,-0.2682031
2309.314,-0.08934082
2310.278,-0.1134668
2311.242,-0.1998145
2312.207,-0.2651269
2313.171,-0.2608691
2314.135,-0.1787842
2315.099,-0.06651367
2316.064,0.02930176
2317.028,0.08973633
2317.992,0.1731348
2318.956,0.1934326
2319.921,-0.08224121
2320.885,-0.3299805
2321.849,-0.2743945
2322.813,-0.4939184
2323.778,-0.9187769
2324.742,-0.5814697
2325.706,0.03818359
2326.67,0.0915039
2327.635,-0.06431153
2328.599,-0.1778271
2329.563,-0.3111939
2330.527,-0.2969995
2331.491,0.0679834
2332.456,0.3496582
2333.42,0.3664941
2334.384,0.4389795
2335.348,0.6197314
2336.313,0.9669873
2337.277,0.7958447
2338.241,-0.1412231
2339.205,-0.5573437
2340.169,-0.4058691
2341.134,-0.2658032
2342.098,-0.3095215
2343.062,-0.6942896
2344.026,-0.7019385
2344.991,-0.3313721
2345.955,-0.08863525
2346.919,-0.1141821
2347.883,-0.8217945
2348.848,-0.8096728
2349.812,0.3247363
2350.776,0.3666699
2351.74,-0.1693311
2352.705,-0.1698413
2353.669,-0.0235791
2354.633,0.1329541
2355.597,0.0493457
2356.562,-0.1802222
2357.526,-0.1716699
2358.49,-0.2376904
2359.454,-0.7367017
2360.418,-0.7197778
2361.383,-0.003701172
2362.347,0.4470825
2363.311,0.3564526
2364.275,-0.6098902
2365.24,-0.9515161
2366.204,-0.1903735
2367.168,0.1080518
2368.132,0.00220459
2369.096,-0.0979541
2370.061,-0.3112817
2371.025,-0.6009936
2371.989,-0.3983374
2372.953,0.05852539
2373.918,-0.02937988
2374.882,-0.2539331
2375.846,-0.2851709
2376.81,-0.2429712
2377.775,-0.2515185
2378.739,-0.4500293
2379.703,-0.5917261
2380.667,-0.511604
2381.632,-0.5861645
2382.596,-0.6682935
2383.56,-0.05902832
2384.524,0.2792725
2385.489,-0.3165796
2386.453,-0.7343286
2387.417,-0.7243775
2388.381,-0.6395898
2389.345,-0.5072534
2390.31,-0.2546484
2391.274,0.03364502
2392.238,0.3055786
2393.202,0.6578662
2394.167,0.7818555
2395.131,0.05414795
2396.095,-0.3443872
2397.059,-0.07057373
2398.023,0.04141358
2398.988,0.01833252
2399.952,-0.1461353
2400.916,-0.310918
2401.88,-0.4612158
2402.845,-0.2875732
2403.809,0.08610351
2404.773,0.2075
2405.737,0.2008545
2406.702,0.1488818
2407.666,-0.1868433
2408.63,-0.6747241
2409.594,-0.4971948
2410.559,-0.2982129
2411.523,-0.6174072
2412.487,-0.752539
2413.451,-0.5593921
2414.416,-0.3829053
2415.38,-0.361062
2416.344,-0.5191357
2417.308,-0.5305054
2418.272,-0.3553101
2419.237,-0.1963696
2420.201,-0.169043
2421.165,-0.3001733
2422.129,-0.1854834
2423.094,0.1613355
2424.058,0.4736304
2425.022,0.4201758
2425.986,-0.4622241
2426.95,-0.4989453
2427.915,0.2970166
2428.879,0.06146973
2429.843,-0.4764404
2430.807,-0.2757691
2431.772,-0.0142749
2432.736,0.1244946
2433.7,0.3565332
2434.664,0.5053369
2435.629,0.2317383
2436.593,-0.01753906
2437.557,-0.09209228
2438.521,0.09893311
2439.486,0.3809521
2440.45,0.2665503
2441.414,-0.0647583
2442.378,-0.4527515
2443.343,-0.3954468
2444.307,-0.001843262
2445.271,0.04537354
2446.235,-0.1565454
2447.199,-0.3707568
2448.164,-0.1028271
2449.128,0.3428076
2450.092,0.1958545
2451.056,0.008288574
2452.021,0.1770996
2452.985,0.2388037
2453.949,0.2484985
2454.913,0.7228931
2455.877,0.671726
2456.842,-0.2217749
2457.806,-0.6427808
2458.77,-0.3674536
2459.734,0.9026831
2460.699,1.422739
2461.663,0.01054443
2462.627,-0.3122241
2463.591,0.3203979
2464.556,0.7858691
2465.52,0.9524072
2466.484,0.6702002
2467.448,0.4347412
2468.413,0.2949292
2469.377,0.2032837
2470.341,0.2402026
2471.305,0.4532129
2472.27,0.2902564
2473.234,-0.2099805
2474.198,-0.05830322
2475.162,0.3582764
2476.126,0.5500684
2477.091,0.3825635
2478.055,0.07416748
2479.019,0.1967407
2479.983,0.5151074
2480.948,0.6855493
2481.912,0.5309204
2482.876,0.2234863
2483.84,0.1573486
2484.804,0.1037158
2485.769,-0.09108642
2486.733,0.0009643555
2487.697,0.2977637
2488.661,0.4520459
2489.626,0.497146
2490.59,0.5524194
2491.554,0.3011719
2492.518,-0.1128711
2493.483,0.1594482
2494.447,0.24448
2495.411,-0.59927
2496.375,-0.7299463
2497.34,-0.06792969
2498.304,0.1358203
2499.268,-0.1021582
2500.232,-0.6534961
2501.197,-0.6332226
2502.161,-0.05353516
2503.125,0.1684253
2504.089,0.3925171
2505.053,0.8249683
2506.018,0.5011646
2506.982,-0.2175195
2507.946,0.01963623
2508.91,0.5924609
2509.875,0.8553906
2510.839,0.7729737
2511.803,0.4707959
2512.767,-0.02050537
2513.731,-0.3069458
2514.696,-0.1808105
2515.66,-0.1069629
2516.624,-0.0749585
2517.588,0.05427735
2518.553,0.2517676
2519.517,0.5932031
2520.481,0.5946045
2521.445,0.263418
2522.41,-0.2513379
2523.374,-0.3315186
2524.338,0.3588062
2525.302,0.6111426
2526.267,0.4350635
2527.231,0.6080053
2528.195,0.5397461
2529.159,0.04502685
2530.124,0.1188354
2531.088,0.3997803
2532.052,-0.0739209
2533.016,-0.5329126
2533.98,-0.4911475
2534.945,-0.04213867
2535.909,0.3606592
2536.873,0.2383618
2537.837,-0.02616943
2538.802,-0.2387109
2539.766,-0.1103345
2540.73,0.08919189
2541.694,-0.1094092
2542.658,-0.1885254
2543.623,0.04609619
2544.587,-0.2425244
2545.551,-0.5377905
2546.515,-0.09072509
2547.48,0.2401538
2548.444,0.1763843
2549.408,0.2612012
2550.372,0.4402905
2551.337,0.5353589
2552.301,0.6983277
2553.265,0.8025562
2554.229,0.294729
2555.194,-0.2896533
2556.158,-0.3970898
2557.122,-0.09277588
2558.086,0.2364233
2559.051,-0.1690308
2560.015,-0.5013501
2560.979,-0.0561499
2561.943,0.4258374
2562.907,0.7094214
2563.872,0.09776612
2564.836,-0.2000244
2565.8,0.6591968
2566.764,1.046099
2567.729,0.7721948
2568.693,0.1389136
2569.657,-0.0854541
2570.621,0.4633936
2571.585,0.5152295
2572.55,0.1435986
2573.514,0.1422949
2574.478,0.1683301
2575.442,0.01872315
2576.407,-0.187085
2577.371,-0.2755859
2578.335,-0.04440918
2579.299,0.2614282
2580.264,0.4935083
2581.228,0.4069995
2582.192,0.2364648
2583.156,0.3391675
2584.121,0.2467822
2585.085,-0.1144434
2586.049,-0.09248047
2587.013,0.1837354
2587.978,0.5656348
2588.942,0.6688086
2589.906,0.5131274
2590.87,0.6924756
2591.834,0.814834
2592.799,0.5199243
2593.763,0.2679394
2594.727,0.2045605
2595.691,0.2742798
2596.656,0.248313
2597.62,0.0592749
2598.584,0.02501953
2599.548,0.09598145
2600.512,0.06489746
2601.477,0.1185864
2602.441,0.362644
2603.405,0.4248438
2604.369,0.4064111
2605.334,0.4893677
2606.298,0.4116089
2607.262,0.1328857
2608.226,0.2705664
2609.191,0.4837451
2610.155,0.2562524
2611.119,0.05431397
2612.083,0.06884278
2613.048,0.2098486
2614.012,0.304812
2614.976,0.2690674
2615.94,0.5792505
2616.905,0.9293335
2617.869,0.3506543
2618.833,0.01671143
2619.797,0.6256543
2620.761,0.343606
2621.726,-0.3782153
2622.69,-0.3237647
2623.654,0.08948242
2624.618,0.7377759
2625.583,1.004146
2626.547,0.8655127
2627.511,0.4532959
2628.475,0.2144531
2629.439,0.2478418
2630.404,0.1306738
2631.368,0.01954346
2632.332,0.1633154
2633.296,0.4961939
2634.261,0.8048218
2635.225,0.7801587
2636.189,0.6291479
2637.153,0.494624
2638.118,0.5650684
2639.082,0.73146
2640.046,0.726289
2641.01,0.6511182
2641.975,0.5368994
2642.939,0.9251709
2643.903,1.251741
2644.867,0.493645
2645.832,0.09472412
2646.796,0.5248169
2647.76,0.7554248
2648.724,0.6606299
2649.688,0.4080811
2650.653,0.3299829
2651.617,0.5687525
2652.581,1.327393
2653.545,1.815354
2654.51,1.5151
2655.474,1.670727
2656.438,2.055007
2657.402,1.814294
2658.367,1.537195
2659.331,1.432734
2660.295,1.462944
2661.259,1.628213
2662.224,1.871157
2663.188,1.981692
2664.152,1.932583
2665.116,1.931458
2666.081,1.98697
2667.045,2.101912
2668.009,2.790615
2668.973,3.529741
2669.938,3.000955
2670.902,2.502166
2671.866,2.771621
2672.83,2.932065
2673.794,3.040518
2674.759,3.274216
2675.723,3.713494
2676.687,4.355698
2677.651,4.573496
2678.615,4.638203
2679.58,4.939663
2680.544,5.022249
2681.508,4.975315
2682.472,5.472434
2683.437,5.982634
2684.401,6.097878
2685.365,6.015244
2686.329,6.186831
2687.294,7.542415
2688.258,8.208565
2689.222,7.313814
2690.186,7.707016
2691.151,8.749434
2692.115,9.643691
2693.079,10.52007
2694.043,11.17141
2695.008,10.66614
2695.972,10.21115
2696.936,10.81477
2697.9,11.19596
2698.865,11.16306
2699.829,11.06006
2700.793,11.05452
2701.757,11.20462
2702.721,11.71723
2703.686,12.035
2704.65,11.31766
2705.614,10.72977
2706.578,10.54082
2707.542,10.97253
2708.507,11.12243
2709.471,10.31041
2710.435,9.624131
2711.399,9.406446
2712.364,9.584678
2713.328,9.497412
2714.292,8.869141
2715.256,7.859146
2716.221,7.084768
2717.185,7.389404
2718.149,7.152686
2719.113,6.273882
2720.078,5.71582
2721.042,5.447285
2722.006,5.482856
2722.97,5.501131
2723.935,5.412847
2724.899,5.175347
2725.863,4.983569
2726.827,4.795056
2727.792,3.971121
2728.756,3.28606
2729.72,3.522851
2730.684,3.870296
2731.648,3.928513
2732.613,3.164531
2733.577,2.559617
2734.541,2.679416
2735.505,2.715032
2736.469,2.679617
2737.434,2.620505
2738.398,2.161128
2739.362,1.507268
2740.326,1.975337
2741.291,2.637432
2742.255,2.442268
2743.219,2.033745
2744.183,1.769231
2745.148,1.835454
2746.112,1.947112
2747.076,1.967051
2748.04,1.900881
2749.005,1.811189
2749.969,1.746943
2750.933,1.4976
2751.897,1.115525
2752.862,1.081428
2753.826,1.209956
2754.79,1.248564
2755.754,1.075649
2756.719,0.8870801
2757.683,1.046477
2758.647,0.9890918
2759.611,0.6509961
2760.575,0.4999341
2761.54,0.5992407
2762.504,1.019036
2763.468,1.174021
2764.432,1.023997
2765.396,0.7965967
2766.361,0.9278369
2767.325,1.387217
2768.289,1.115525
2769.253,0.626709
2770.218,0.6506299
2771.182,0.6087573
2772.146,0.4716235
2773.11,0.7582983
2774.075,0.8667529
2775.039,0.3410205
2776.003,0.1112988
2776.967,0.2027612
2777.932,0.5797974
2778.896,0.7484937
2779.86,0.5816455
2780.824,0.3265772
2781.789,0.2566455
2782.753,0.4304785
2783.717,0.03589111
2784.681,-0.3065063
2785.646,0.810564
2786.61,1.353518
2787.574,0.8226831
2788.538,0.7025171
2789.502,0.6310742
2790.467,0.3251025
2791.431,0.593899
2792.395,1.0773
2793.359,0.4797437
2794.323,-0.01459473
2795.288,0.1672827
2796.252,0.5979297
2797.216,0.7222339
2798.18,0.02930176
2799.145,-0.1095898
2800.109,0.2571631
2801.073,0.3284595
2802.037,0.4564575
2803.002,0.7828833
2803.966,0.8087183
2804.93,0.6793042
2805.894,0.6549707
2806.859,0.5495996
2807.823,0.3927515
2808.787,0.3707812
2809.751,0.3159375
2810.716,0.1756763
2811.68,0.3111304
2812.644,0.5279224
2813.608,0.6430323
2814.573,0.32479
2815.537,-0.2976953
2816.501,-0.01565186
2817.465,0.4277295
2818.429,0.475061
2819.394,0.3161474
2820.358,0.1990893
2821.322,0.3296216
2822.286,0.4802368
2823.25,0.5898706
2824.215,0.8686938
2825.179,0.8409082
2826.143,0.2186572
2827.107,-0.1586035
2828.072,-0.7511743
2829.036,-1.264446
2830,5.869971
2830.964,15.92274
2831.929,9.976951
2832.893,1.565188
2833.857,0.2692627
2834.821,0.3387549
2835.786,0.3709888
2836.75,0.4494165
2837.714,0.398479
2838.678,0.2761206
2839.643,0.5329907
2840.607,0.5742383
2841.571,0.1321289
2842.535,0.09353027
2843.5,0.1531006
2844.464,-0.2711499
2845.428,-0.045
2846.392,0.6050366
2847.356,0.1845654
2848.321,-0.3013574
2849.285,-0.2789844
2850.249,-0.1866626
2851.213,-0.1426978
2852.177,-0.2783496
2853.142,-0.1631616
2854.106,0.1453833
2855.07,0.1145679
2856.034,0.1989941
2856.999,0.5517578
2857.963,0.6222193
2858.927,0.4073877
2859.891,-0.2437817
2860.856,-0.258794
2861.82,0.2065991
2862.784,0.1066479
2863.748,-0.1520972
2864.713,-0.2237427
2865.677,0.3073877
2866.641,0.5760596
2867.605,-0.1614795
2868.57,-0.1872778
2869.534,0.4351026
2870.498,0.9635962
2871.462,0.8857959
2872.427,0.0329834
2873.391,0.2922974
2874.355,0.9443384
2875.319,1.167085
2876.283,1.05094
2877.248,0.6648804
2878.212,0.03245606
2879.176,0.08788086
2880.14,0.8018701
2881.104,1.252568
2882.069,0.9836524
2883.033,-0.4880591
2883.997,-0.2946362
2884.961,0.6934863
2885.926,0.496106
2886.89,0.3641187
2887.854,0.5345093
2888.818,0.01866455
2889.783,-0.3392163
2890.747,-0.07016358
2891.711,0.005441895
2892.675,0.08720215
2893.64,0.7052881
2894.604,0.745166
2895.568,0.2120874
2896.532,0.05577637
2897.497,0.2284082
2898.461,0.5337402
2899.425,0.6399781
2900.389,0.5071142
2901.354,0.1712134
2902.318,-0.2356323
2903.282,-0.4414453
2904.246,0.2506519
2905.21,0.3326563
2906.175,-0.5283667
2907.139,-0.8199878
2908.103,-0.4437598
2909.067,0.3030249
2910.031,0.4203491
2910.996,0.1164209
2911.96,-0.1305371
2912.924,0.02535645
2913.888,0.42094
2914.853,0.3195825
2915.817,0.2613916
2916.781,0.4245776
2917.745,-0.02639649
2918.71,-0.3967407
2919.674,0.08800293
2920.638,-0.1211548
2921.602,-0.7152417
2922.567,-0.334187
2923.531,0.2257275
2924.495,0.5800586
2925.459,0.1861011
2926.424,-0.1540991
2927.388,0.0865747
2928.352,0.2562573
2929.316,0.2639087
2930.281,0.220957
2931.245,0.236626
2932.209,0.2726196
2933.173,0.155437
2934.137,-0.01548584
2935.102,-0.1833667
2936.066,-0.2484766
2937.03,-0.2603638
2937.994,-0.2352417
2938.958,0.1114697
2939.923,0.4887695
2940.887,0.2915112
2941.851,-0.02335205
2942.815,-0.1892285
2943.78,-0.1769214
2944.744,-0.1632544
2945.708,-0.3106055
2946.672,0.1370923
2947.637,0.7482324
2948.601,0.8360816
2949.565,0.4407471
2950.529,-0.06983399
2951.494,-0.04941894
2952.458,-0.1075928
2953.422,-0.4124976
2954.386,-0.4563013
2955.351,-0.3417774
2956.315,-0.17927
2957.279,0.1399023
2958.243,0.3858936
2959.208,0.1947729
2960.172,0.2829517
2961.136,0.4920703
2962.1,-0.2592383
2963.064,-0.49375
2964.029,0.3066919
2964.993,0.1224097
2965.957,0.01776123
2966.921,0.7875171
2967.885,0.9386303
2968.85,0.7285473
2969.814,1.106135
2970.778,0.7737012
2971.743,-0.125415
2972.707,-0.1988696
2973.671,-0.05443115
2974.635,-0.04704834
2975.6,0.1249487
2976.564,0.4698901
2977.528,0.865354
2978.492,0.3940088
2979.457,-0.4687256
2980.421,-0.6602685
2981.385,-0.3803979
2982.349,0.05292236
2983.313,0.3451318
2984.278,0.267041
2985.242,-0.2448169
2986.206,-0.2178491
2987.17,0.05902344
2988.135,0.1663013
2989.099,0.1650488
2990.063,0.09480713
2991.027,-0.1802368
2991.991,0.1069141
2992.956,0.7528589
2993.92,0.3895703
2994.884,0.1387451
2995.848,0.3979443
2996.813,0.2202441
2997.777,0.06015381
2998.741,0.3953394
2999.705,0.6476416
3000.67,0.7080225
3001.634,0.7338281
3002.598,0.4203589
3003.562,-0.0775122
3004.527,-0.05859131
3005.491,0.02104492
3006.455,-0.06922852
3007.419,-0.1944995
3008.384,-0.3497388
3009.348,-0.4682202
3010.312,0.1526514
3011.276,0.6566919
3012.24,-0.3596655
3013.205,-0.6690503
3014.169,-0.1901636
3015.133,-0.0870581
3016.097,-0.02308105
3017.062,0.07879151
3018.026,-0.2209204
3018.99,-0.3211548
3019.954,0.1997046
3020.918,0.07671387
3021.883,-0.2551733
3022.847,-0.3295776
3023.811,-0.3375781
3024.775,-0.2808936
3025.74,-0.08835449
3026.704,0.2248853
3027.668,0.4440308
3028.632,0.02581787
3029.597,-0.2148877
3030.561,0.1326465
3031.525,-0.2504272
3032.489,-0.4604858
3033.454,0.1664062
3034.418,0.2655517
3035.382,-0.1100952
3036.346,-0.4667676
3037.311,0.02292236
3038.275,0.7874878
3039.239,-0.1252417
3040.203,-0.4559766
3041.167,0.3063184
3042.132,0.298584
3043.096,0.1519702
3044.06,0.386167
3045.024,0.4004346
3045.989,0.2818262
3046.953,0.2026563
3047.917,0.4170239
3048.881,0.7034131
3049.845,0.6330152
3050.81,0.3627295
3051.774,0.1391553
3052.738,0.3723999
3053.702,0.417981
3054.667,0.1064014
3055.631,0.2171338
3056.595,0.4322729
3057.559,0.5121216
3058.524,0.4562915
3059.488,0.1848267
3060.452,-0.2846362
3061.416,-0.4672827
3062.381,-0.2888184
3063.345,0.3811768
3064.309,0.4315894
3065.273,-0.1200366
3066.238,-0.1452051
3067.202,0.1243896
3068.166,0.4104004
3069.13,0.2494238
3070.094,-0.1240405
3071.059,-0.3851318
3072.023,0.03602051
3072.987,0.633606
3073.951,0.8413941
3074.916,0.5568115
3075.88,0.1241357
3076.844,0.4009351
3077.808,0.6316992
3078.772,0.5037525
3079.737,0.092854
3080.701,-0.3090723
3081.665,-0.5115161
3082.629,0.2105762
3083.594,0.5385522
3084.558,-0.2013623
3085.522,-0.3839941
3086.486,-0.059375
3087.451,0.2925439
3088.415,0.1699585
3089.379,-0.1485474
3090.343,-0.09282227
3091.308,-0.1231689
3092.272,-0.2423608
3093.236,-0.0651831
3094.2,0.2900806
3095.165,0.5435864
3096.129,0.2396167
3097.093,-0.1073877
3098.057,-0.1739893
3099.021,-0.3527344
3099.986,-0.2741455
3100.95,0.2458984
3101.914,0.27021
3102.878,-0.151394
3103.843,-0.663479
3104.807,-0.6949194
3105.771,-0.3767798
3106.735,-0.1646265
3107.699,-0.3189551
3108.664,-0.6041821
3109.628,0.01893066
3110.592,0.6013135
3111.556,0.5210865
3112.521,-0.2962915
3113.485,-0.8169605
3114.449,-0.2490332
3115.413,-0.2891235
3116.378,-0.518103
3117.342,-0.4454126
3118.306,-0.150144
3119.27,0.03436035
3120.235,-0.2823486
3121.199,-0.5249365
3122.163,-0.6037647
3123.127,-0.6887793
3124.092,-0.5589551
3125.056,-0.2619458
3126.02,-0.1864014
3126.984,0.007563476
3127.948,0.3324732
3128.913,0.2666773
3129.877,-0.156958
3130.841,-0.9320508
3131.805,-0.6786133
3132.77,-0.05715088
3133.734,0.1055518
3134.698,0.1201978
3135.662,-0.07566162
3136.626,-1.074285
3137.591,-0.7831006
3138.555,0.1716284
3139.519,0.1117261
3140.483,-0.2851196
3141.448,-0.5235474
3142.412,-0.0714209
3143.376,0.0313208
3144.34,-0.471499
3145.305,-0.6405713
3146.269,-0.6323291
3147.233,-0.5411157
3148.197,-0.1457031
3149.162,0.1068604
3150.126,-0.1721558
3151.09,-0.8798681
3152.054,-1.23835
3153.019,-0.2314014
3153.983,0.2603882
3154.947,0.1210938
3155.911,-0.4406933
3156.875,-0.5921606
3157.84,-0.319751
3158.804,-0.1269336
3159.768,0.2443945
3160.732,0.5794629
3161.697,-0.1299146
3162.661,-0.4725244
3163.625,-0.1199927
3164.589,-0.2241797
3165.553,-0.5890918
3166.518,-0.8651001
3167.482,-0.6376074
3168.446,-0.4199585
3169.41,-0.5987695
3170.375,-0.6489502
3171.339,-0.4124951
3172.303,0.05828613
3173.267,0.008093262
3174.232,-0.2804712
3175.196,-0.2178857
3176.16,0.01945068
3177.124,0.1619214
3178.089,-0.1606055
3179.053,-0.3504736
3180.017,-0.2994483
3180.981,-0.294541
3181.946,-0.2870093
3182.91,-0.2366675
3183.874,-0.09716552
3184.838,-0.02698975
3185.802,-0.1088696
3186.767,-0.4051929
3187.731,-0.7844751
3188.695,-1.005715
3189.659,-0.4906299
3190.624,-0.03428223
3191.588,-0.2667285
3192.552,-0.568352
3193.516,-0.5090576
3194.48,0.1603223
3195.445,0.4825293
3196.409,0.3788208
3197.373,0.04345947
3198.337,-0.1339282
3199.302,-0.2868872
3200.266,-0.6692652
3201.23,-0.6448706
3202.194,-0.2997266
3203.159,-0.2748145
3204.123,-0.3283008
3205.087,-0.3142627
3206.051,-0.09140625
3207.016,-0.2418701
3207.98,-0.7791284
3208.944,-0.8477173
3209.908,-0.4104565
3210.873,0.22229
3211.837,0.1746509
3212.801,-0.1232593
3213.765,-0.3286401
3214.729,-0.03491455
3215.694,0.0747168
3216.658,-0.4161572
3217.622,-0.02243164
3218.586,0.544895
3219.551,0.1211523
3220.515,-0.4170361
3221.479,-0.6680371
3222.443,-0.2863623
3223.407,-0.007719727
3224.372,-0.01766846
3225.336,-0.3152857
3226.3,-0.3017505
3227.264,-0.08278076
3228.229,-0.1039331
3229.193,-0.1291772
3230.157,-0.06065185
3231.121,0.1284912
3232.086,0.3772388
3233.05,0.5280127
3234.014,0.07707031
3234.978,-0.01084717
3235.943,0.3690991
3236.907,0.02378174
3237.871,-0.1923706
3238.835,0.1592944
3239.8,0.5287207
3240.764,0.3500049
3241.728,-0.5237451
3242.692,0.02495117
3243.656,0.4669482
3244.621,-0.233833
3245.585,-0.118999
3246.549,0.51594
3247.513,1.19376
3248.478,0.7855029
3249.442,0.396272
3250.406,1.03845
3251.37,0.9273535
3252.334,0.3824927
3253.299,0.3670898
3254.263,0.6370508
3255.227,0.8491797
3256.191,0.6403003
3257.156,0.4810742
3258.12,0.3938428
3259.084,0.1575024
3260.048,0.3437573
3261.013,0.8216162
3261.977,1.020779
3262.941,0.8088354
3263.905,0.2978223
3264.87,-0.01554199
3265.834,0.09231934
3266.798,0.3502759
3267.762,-0.1946558
3268.727,-0.2380249
3269.691,0.4079028
3270.655,-0.008051758
3271.619,-0.2784766
3272.583,-0.01212402
3273.548,-0.4652368
3274.512,-0.5940503
3275.476,0.1440186
3276.44,0.08880371
3277.405,0.09993164
3278.369,0.5175464
3279.333,0.2565723
3280.297,-0.03309326
3281.261,0.192439
3282.226,-0.1508472
3283.19,-0.4257373
3284.154,-0.1826245
3285.118,0.3330884
3286.083,0.5859692
3287.047,0.2239038
3288.011,0.07341309
3288.975,0.1269775
3289.94,0.2376025
3290.904,-0.07084472
3291.868,-0.4017798
3292.832,-0.220498
3293.797,0.05568603
3294.761,0.2145312
3295.725,0.1745313
3296.689,0.1422437
3297.654,0.13625
3298.618,0.07384522
3299.582,-0.3542896
3300.546,-0.7258618
3301.51,-0.1623511
3302.475,-0.01281982
3303.439,-0.1307983
3304.403,0.1220142
3305.367,0.5125586
3306.332,0.6650732
3307.296,0.01252686
3308.26,-0.2514209
3309.224,-0.2880737
3310.189,-0.7256885
3311.153,-0.2537036
3312.117,0.6781445
3313.081,0.2679199
3314.046,0.1290015
3315.01,0.3818945
3315.974,0.1654321
3316.938,-0.1945459
3317.903,-0.3571265
3318.867,0.340332
3319.831,0.186023
3320.795,-0.6872852
3321.76,-0.08049317
3322.724,0.3936572
3323.688,0.2474414
3324.652,-0.08300781
3325.616,-0.04354736
3326.581,0.2794898
3327.545,-0.08941895
3328.509,-0.4074634
3329.473,-0.5377002
3330.438,-0.9399487
3331.402,-0.8426026
3332.366,-0.1571704
3333.33,0.2482373
3334.294,0.3047485
3335.259,0.140415
3336.223,0.2842285
3337.187,0.160022
3338.151,-0.2464697
3339.116,0.1097583
3340.08,0.2809448
3341.044,-0.07747803
3342.008,0.009416504
3342.973,0.1690869
3343.937,0.1365918
3344.901,-0.1346118
3345.865,-0.2314551
3346.83,0.01821289
3347.794,0.2445825
3348.758,0.5798071
3349.722,0.8108911
3350.687,0.03580078
3351.651,-0.6505517
3352.615,-0.5787451
3353.579,0.04891602
3354.543,0.6344873
3355.508,0.724021
3356.472,-0.02339111
3357.436,-0.5510571
3358.4,-0.383916
3359.365,-0.640376
3360.329,-0.6473438
3361.293,-0.1739014
3362.257,0.2151465
3363.221,0.4114429
3364.186,0.4059058
3365.15,0.1308105
3366.114,0.06971924
3367.078,0.3377539
3368.043,0.3639844
3369.007,0.523103
3369.971,0.8372632
3370.935,-0.1682519
3371.9,-0.6885132
3372.864,-0.1842651
3373.828,-0.01942383
3374.792,0.06940918
3375.757,0.267085
3376.721,0.2260254
3377.685,-0.09640869
3378.649,-0.5489843
3379.614,-0.2966602
3380.578,0.2194092
3381.542,0.5352563
3382.506,0.3191016
3383.47,0.1421435
3384.435,0.2182495
3385.399,0.2799902
3386.363,0.4005567
3387.327,0.444436
3388.292,-0.3284131
3389.256,-0.5373828
3390.22,0.2110156
3391.184,0.4931641
3392.148,0.4408594
3393.113,0.2324023
3394.077,0.02290283
3395.041,-0.2603979
3396.005,-0.6076782
3396.97,-0.5662329
3397.934,-0.2779419
3398.898,0.05877197
3399.862,0.2467114
3400.827,0.3705688
3401.791,0.3944946
3402.755,0.08355957
3403.719,0.01896484
3404.684,0.1810181
3405.648,-0.1706177
3406.612,-0.309353
3407.576,-0.06279541
3408.541,0.251333
3409.505,0.2066797
3410.469,-0.1357495
3411.433,-0.4420435
3412.397,-0.3118628
3413.362,0.008703614
3414.326,-0.1663916
3415.29,-0.07488769
3416.254,0.2689746
3417.219,0.3612256
3418.183,0.1507397
3419.147,-0.09609619
3420.111,0.03142822
3421.075,0.06370606
3422.04,0.007207031
3423.004,0.1368628
3423.968,0.1470996
3424.932,0.1320337
3425.897,0.3317724
3426.861,0.7358081
3427.825,0.7721631
3428.789,-0.3171069
3429.754,-0.2721851
3430.718,0.4229199
3431.682,0.5778198
3432.646,0.1332764
3433.611,-0.33021
3434.575,-0.148999
3435.539,0.24646
3436.503,0.4285376
3437.468,0.2029736
3438.432,0.1528369
3439.396,0.02873535
3440.36,-0.4207056
3441.324,-0.3033521
3442.289,-0.03417725
3443.253,0.008405762
3444.217,0.1747144
3445.181,0.1998315
3446.146,-0.08584228
3447.11,-0.1523706
3448.074,-0.2318408
3449.038,-0.3761939
3450.002,0.1585449
3450.967,0.22052
3451.931,-0.5655738
3452.895,-0.34896
3453.859,0.2159839
3454.824,0.5863819
3455.788,0.06242187
3456.752,-0.2126685
3457.716,0.06534912
3458.681,-0.4248389
3459.645,-0.5403222
3460.609,-0.019021
3461.573,0.5578247
3462.538,0.4071411
3463.502,-0.2366113
3464.466,-0.1801709
3465.43,0.01904297
3466.395,0.1495361
3467.359,0.04395996
3468.323,0.279834
3469.287,0.6542138
3470.251,0.5113184
3471.216,0.3183276
3472.18,0.2087671
3473.144,0.2559741
3474.108,0.2115088
3475.073,0.1147046
3476.037,0.09857666
3477.001,-0.06591309
3477.965,-0.196792
3478.929,-0.06605957
3479.894,0.2409326
3480.858,0.393186
3481.822,0.1851709
3482.786,0.1928174
3483.751,0.3201709
3484.715,0.3494043
3485.679,-0.1069165
3486.643,-0.3177417
3487.608,0.05059082
3488.572,0.2020898
3489.536,0.2919824
3490.5,0.3886426
3491.465,0.3442798
3492.429,0.1469287
3493.393,-0.145271
3494.357,-0.2231177
3495.322,-0.1618726
3496.286,-0.03749023
3497.25,0.130332
3498.214,0.01717041
3499.178,-0.06430908
3500.143,0.6453784
