9.998845e+002,-3.116719e+000
1.000849e+003,-3.346172e+000
1.001813e+003,-3.370391e+000
1.002777e+003,-3.224531e+000
1.003741e+003,-2.981875e+000
1.004706e+003,-2.608984e+000
1.005670e+003,-1.919297e+000
1.006634e+003,-8.021094e-001
1.007598e+003,-6.478906e-001
1.008563e+003,-1.560234e+000
1.009527e+003,-2.454141e+000
1.010491e+003,-2.664922e+000
1.011455e+003,-2.167656e+000
1.012420e+003,-1.395156e+000
1.013384e+003,-8.019531e-001
1.014348e+003,-4.057031e-001
1.015312e+003,-1.754766e+000
1.016276e+003,-3.836719e+000
1.017241e+003,-4.352578e+000
1.018205e+003,-3.693125e+000
1.019169e+003,-2.979687e+000
1.020133e+003,-2.740313e+000
1.021098e+003,-2.699687e+000
1.022062e+003,-3.672422e+000
1.023026e+003,-2.576172e+000
1.023990e+003,-2.821094e-001
1.024955e+003,3.562500e-001
1.025919e+003,2.499219e-001
1.026883e+003,5.031250e-001
1.027847e+003,1.017344e+000
1.028812e+003,1.168125e+000
1.029776e+003,9.700000e-001
1.030740e+003,-1.389297e+000
1.031704e+003,-3.260703e+000
1.032668e+003,-3.707422e+000
1.033633e+003,-2.996797e+000
1.034597e+003,-1.556172e+000
1.035561e+003,-2.750781e-001
1.036525e+003,-1.146328e+000
1.037490e+003,-2.482734e+000
1.038454e+003,-3.156328e+000
1.039418e+003,-3.848672e+000
1.040382e+003,-4.152031e+000
1.041347e+003,-3.354141e+000
1.042311e+003,-1.509531e+000
1.043275e+003,-1.679688e-002
1.044239e+003,-9.680469e-001
1.045203e+003,-2.038125e+000
1.046168e+003,1.468750e-001
1.047132e+003,1.084922e+000
1.048096e+003,3.480469e-001
1.049060e+003,-3.477344e-001
1.050025e+003,-3.212500e-001
1.050989e+003,-5.631250e-001
1.051953e+003,-1.440234e+000
1.052917e+003,-1.320703e+000
1.053882e+003,2.799219e-001
1.054846e+003,1.217422e+000
1.055810e+003,1.265391e+000
1.056774e+003,6.320313e-001
1.057739e+003,-1.657812e-001
1.058703e+003,-4.275781e-001
1.059667e+003,2.261719e-001
1.060631e+003,2.128125e-001
1.061595e+003,-5.235156e-001
1.062560e+003,5.604687e-001
1.063524e+003,2.460234e+000
1.064488e+003,3.970156e+000
1.065452e+003,4.640781e+000
1.066417e+003,4.488594e+000
1.067381e+003,3.467344e+000
1.068345e+003,3.777188e+000
1.069309e+003,5.189844e+000
1.070274e+003,6.749141e+000
1.071238e+003,7.621250e+000
1.072202e+003,6.816641e+000
1.073166e+003,4.971328e+000
1.074130e+003,3.687109e+000
1.075095e+003,3.743906e+000
1.076059e+003,7.078047e+000
1.077023e+003,1.008672e+001
1.077987e+003,8.047969e+000
1.078952e+003,6.097656e+000
1.079916e+003,7.003438e+000
1.080880e+003,8.553047e+000
1.081844e+003,7.766328e+000
1.082809e+003,6.213594e+000
1.083773e+003,7.242578e+000
1.084737e+003,8.735547e+000
1.085701e+003,9.354062e+000
1.086666e+003,9.813203e+000
1.087630e+003,9.896250e+000
1.088594e+003,9.247266e+000
1.089558e+003,8.102891e+000
1.090522e+003,7.452890e+000
1.091487e+003,8.286797e+000
1.092451e+003,8.801172e+000
1.093415e+003,8.309844e+000
1.094379e+003,7.048047e+000
1.095344e+003,5.992656e+000
1.096308e+003,6.464140e+000
1.097272e+003,8.174141e+000
1.098236e+003,9.169531e+000
1.099201e+003,8.713828e+000
1.100165e+003,7.639844e+000
1.101129e+003,6.391953e+000
1.102093e+003,5.695547e+000
1.103057e+003,5.493437e+000
1.104022e+003,5.683359e+000
1.104986e+003,6.128672e+000
1.105950e+003,6.730078e+000
1.106914e+003,7.273203e+000
1.107879e+003,5.941563e+000
1.108843e+003,3.609766e+000
1.109807e+003,2.686953e+000
1.110771e+003,2.915313e+000
1.111736e+003,4.260391e+000
1.112700e+003,5.313906e+000
1.113664e+003,4.654687e+000
1.114628e+003,2.803516e+000
1.115593e+003,2.090547e+000
1.116557e+003,2.293203e+000
1.117521e+003,2.279375e+000
1.118485e+003,1.953594e+000
1.119449e+003,1.221094e+000
1.120414e+003,2.764063e-001
1.121378e+003,-4.299219e-001
1.122342e+003,-4.012500e-001
1.123306e+003,5.142969e-001
1.124271e+003,1.448437e+000
1.125235e+003,2.057656e+000
1.126199e+003,1.578594e+000
1.127163e+003,3.364063e-001
1.128128e+003,1.990625e-001
1.129092e+003,1.054375e+000
1.130056e+003,1.235312e+000
1.131020e+003,9.265625e-002
1.131984e+003,-7.271094e-001
1.132949e+003,-1.332656e+000
1.133913e+003,-3.639844e-001
1.134877e+003,9.575781e-001
1.135841e+003,1.967344e+000
1.136806e+003,2.489219e+000
1.137770e+003,1.992656e+000
1.138734e+003,5.520313e-001
1.139698e+003,3.406250e-001
1.140663e+003,1.355703e+000
1.141627e+003,-2.265625e-002
1.142591e+003,-8.298438e-001
1.143555e+003,1.465312e+000
1.144520e+003,3.685000e+000
1.145484e+003,3.282031e+000
1.146448e+003,1.467188e+000
1.147412e+003,1.290156e+000
1.148376e+003,2.062187e+000
1.149341e+003,1.721250e+000
1.150305e+003,1.784766e+000
1.151269e+003,3.760781e+000
1.152233e+003,5.569140e+000
1.153198e+003,6.341016e+000
1.154162e+003,5.978750e+000
1.155126e+003,4.918359e+000
1.156090e+003,4.392969e+000
1.157055e+003,5.914063e+000
1.158019e+003,6.063984e+000
1.158983e+003,3.799766e+000
1.159947e+003,4.079609e+000
1.160911e+003,6.085312e+000
1.161876e+003,6.359453e+000
1.162840e+003,4.171953e+000
1.163804e+003,2.100625e+000
1.164769e+003,1.835078e+000
1.165733e+003,2.580859e+000
1.166697e+003,3.859531e+000
1.167661e+003,3.680156e+000
1.168625e+003,2.857109e+000
1.169590e+003,2.758359e+000
1.170554e+003,3.507031e+000
1.171518e+003,4.692969e+000
1.172482e+003,5.476719e+000
1.173447e+003,3.866172e+000
1.174411e+003,1.608203e+000
1.175375e+003,4.107578e+000
1.176339e+003,6.876563e+000
1.177304e+003,7.484453e+000
1.178268e+003,6.263515e+000
1.179232e+003,4.110859e+000
1.180196e+003,2.670781e+000
1.181161e+003,3.390469e+000
1.182125e+003,4.572813e+000
1.183089e+003,5.029375e+000
1.184053e+003,4.998594e+000
1.185017e+003,4.158438e+000
1.185982e+003,2.912188e+000
1.186946e+003,1.649531e+000
1.187910e+003,1.701250e+000
1.188874e+003,3.243047e+000
1.189839e+003,4.085078e+000
1.190803e+003,2.323672e+000
1.191767e+003,1.812109e+000
1.192731e+003,2.710469e+000
1.193696e+003,8.294531e-001
1.194660e+003,-1.947656e+000
1.195624e+003,-2.902031e+000
1.196588e+003,-2.087188e+000
1.197552e+003,-6.818750e-001
1.198517e+003,6.591406e-001
1.199481e+003,4.069531e-001
1.200445e+003,-1.006328e+000
1.201409e+003,-1.465312e+000
1.202374e+003,-1.607500e+000
1.203338e+003,-2.115859e+000
1.204302e+003,-1.910781e+000
1.205266e+003,-6.104687e-001
1.206231e+003,-1.299219e-001
1.207195e+003,-2.434688e+000
1.208159e+003,-5.081875e+000
1.209123e+003,-5.336641e+000
1.210088e+003,-4.239453e+000
1.211052e+003,-1.721406e+000
1.212016e+003,-1.092813e+000
1.212980e+003,-2.163672e+000
1.213944e+003,-3.353203e+000
1.214909e+003,-3.788281e+000
1.215873e+003,-3.561719e+000
1.216837e+003,-2.673828e+000
1.217801e+003,-1.577109e+000
1.218766e+003,-4.614063e-001
1.219730e+003,-8.981250e-001
1.220694e+003,-1.749219e+000
1.221658e+003,-1.407266e+000
1.222623e+003,-9.316406e-001
1.223587e+003,-2.315469e+000
1.224551e+003,-5.124063e+000
1.225515e+003,-6.066484e+000
1.226479e+003,-5.075547e+000
1.227444e+003,-3.168984e+000
1.228408e+003,-1.250625e+000
1.229372e+003,-3.849219e-001
1.230336e+003,-6.686718e-001
1.231301e+003,-1.849297e+000
1.232265e+003,-2.535625e+000
1.233229e+003,-1.723438e+000
1.234193e+003,-4.227344e-001
1.235158e+003,-2.453906e-001
1.236122e+003,2.546094e-001
1.237086e+003,1.451875e+000
1.238050e+003,1.028281e+000
1.239015e+003,-2.437500e-002
1.239979e+003,3.564844e-001
1.240943e+003,1.545625e+000
1.241907e+003,1.109453e+000
1.242871e+003,-1.197813e+000
1.243836e+003,-1.434141e+000
1.244800e+003,7.914063e-001
1.245764e+003,1.797109e+000
1.246728e+003,1.477656e+000
1.247693e+003,5.261719e-001
1.248657e+003,-2.837500e-001
1.249621e+003,-5.715625e-001
1.250585e+003,-1.372656e-001
1.251550e+003,6.975000e-001
1.252514e+003,1.301719e+000
1.253478e+003,2.488906e+000
1.254442e+003,3.562031e+000
1.255406e+003,2.444375e+000
1.256371e+003,2.859219e+000
1.257335e+003,4.333984e+000
1.258299e+003,3.605391e+000
1.259263e+003,1.452109e+000
1.260228e+003,8.698437e-001
1.261192e+003,2.525859e+000
1.262156e+003,3.905000e+000
1.263120e+003,4.292265e+000
1.264085e+003,2.549375e+000
1.265049e+003,1.082188e+000
1.266013e+003,2.440859e+000
1.266977e+003,3.642812e+000
1.267942e+003,1.975078e+000
1.268906e+003,-6.816406e-001
1.269870e+003,-1.098047e+000
1.270834e+003,1.725000e-001
1.271798e+003,-3.936719e-001
1.272763e+003,-1.443516e+000
1.273727e+003,6.110938e-001
1.274691e+003,1.739453e+000
1.275655e+003,-3.637500e-001
1.276620e+003,-1.806328e+000
1.277584e+003,-1.494141e+000
1.278548e+003,-8.852344e-001
1.279512e+003,-1.029531e+000
1.280477e+003,-1.470625e+000
1.281441e+003,-2.103437e+000
1.282405e+003,-2.933984e+000
1.283369e+003,-4.245937e+000
1.284333e+003,-3.741328e+000
1.285298e+003,-2.431875e+000
1.286262e+003,-2.891406e+000
1.287226e+003,-4.264141e+000
1.288190e+003,-4.445313e+000
1.289155e+003,-3.891641e+000
1.290119e+003,-5.211250e+000
1.291083e+003,-7.044765e+000
1.292047e+003,-6.281875e+000
1.293012e+003,-5.679766e+000
1.293976e+003,-6.906641e+000
1.294940e+003,-8.044375e+000
1.295904e+003,-8.105703e+000
1.296869e+003,-6.604297e+000
1.297833e+003,-4.389609e+000
1.298797e+003,-3.941797e+000
1.299761e+003,-6.939610e+000
1.300725e+003,-9.940156e+000
1.301690e+003,-9.749844e+000
1.302654e+003,-1.024883e+001
1.303618e+003,-1.076586e+001
1.304582e+003,-9.254453e+000
1.305547e+003,-7.426094e+000
1.306511e+003,-7.330859e+000
1.307475e+003,-8.681250e+000
1.308439e+003,-9.831328e+000
1.309404e+003,-1.013727e+001
1.310368e+003,-9.388125e+000
1.311332e+003,-8.540703e+000
1.312296e+003,-9.012891e+000
1.313260e+003,-9.614375e+000
1.314225e+003,-9.652109e+000
1.315189e+003,-9.442344e+000
1.316153e+003,-9.125235e+000
1.317117e+003,-8.283984e+000
1.318082e+003,-6.878281e+000
1.319046e+003,-5.954062e+000
1.320010e+003,-6.415156e+000
1.320974e+003,-6.408047e+000
1.321939e+003,-5.375000e+000
1.322903e+003,-5.501328e+000
1.323867e+003,-6.063672e+000
1.324831e+003,-5.176328e+000
1.325796e+003,-4.194297e+000
1.326760e+003,-5.300703e+000
1.327724e+003,-7.571640e+000
1.328688e+003,-7.955703e+000
1.329652e+003,-7.141719e+000
1.330617e+003,-6.762031e+000
1.331581e+003,-6.080547e+000
1.332545e+003,-3.488984e+000
1.333509e+003,-2.316797e+000
1.334474e+003,-3.591719e+000
1.335438e+003,-4.397656e+000
1.336402e+003,-3.512656e+000
1.337366e+003,-2.527734e+000
1.338331e+003,-2.645781e+000
1.339295e+003,-2.443203e+000
1.340259e+003,-9.690625e-001
1.341223e+003,-7.665625e-001
1.342188e+003,-1.235781e+000
1.343152e+003,-2.873750e+000
1.344116e+003,-4.597813e+000
1.345080e+003,-4.493125e+000
1.346044e+003,-3.682812e+000
1.347009e+003,-3.674453e+000
1.347973e+003,-3.907734e+000
1.348937e+003,-3.168984e+000
1.349901e+003,-2.254844e+000
1.350866e+003,-2.776562e+000
1.351830e+003,-3.158359e+000
1.352794e+003,-2.002266e+000
1.353758e+003,-2.152500e+000
1.354723e+003,-3.508672e+000
1.355687e+003,-3.890234e+000
1.356651e+003,-2.822031e+000
1.357615e+003,-1.425000e+000
1.358579e+003,-5.255468e-001
1.359544e+003,-1.947656e-001
1.360508e+003,-2.897656e-001
1.361472e+003,-2.554141e+000
1.362436e+003,-4.899453e+000
1.363401e+003,-6.308203e+000
1.364365e+003,-6.865000e+000
1.365329e+003,-4.275938e+000
1.366293e+003,-1.015781e+000
1.367258e+003,6.538281e-001
1.368222e+003,1.051719e+000
1.369186e+003,5.005469e-001
1.370150e+003,-1.424922e+000
1.371115e+003,-3.437656e+000
1.372079e+003,-5.751406e+000
1.373043e+003,-9.012032e+000
1.374007e+003,-9.975938e+000
1.374971e+003,-8.983829e+000
1.375936e+003,-7.824609e+000
1.376900e+003,-7.027734e+000
1.377864e+003,-6.395469e+000
1.378828e+003,-6.161797e+000
1.379793e+003,-6.850781e+000
1.380757e+003,-7.889141e+000
1.381721e+003,-7.079688e+000
1.382685e+003,-6.193438e+000
1.383650e+003,-7.836172e+000
1.384614e+003,-8.917266e+000
1.385578e+003,-8.554375e+000
1.386542e+003,-8.506406e+000
1.387506e+003,-9.452890e+000
1.388471e+003,-1.065195e+001
1.389435e+003,-1.132195e+001
1.390399e+003,-1.145836e+001
1.391363e+003,-1.128266e+001
1.392328e+003,-9.873360e+000
1.393292e+003,-7.712812e+000
1.394256e+003,-7.945391e+000
1.395220e+003,-9.281719e+000
1.396185e+003,-1.145828e+001
1.397149e+003,-1.158648e+001
1.398113e+003,-6.078281e+000
1.399077e+003,-5.150781e-001
1.400042e+003,-2.098047e+000
1.401006e+003,-6.897344e+000
1.401970e+003,-7.680937e+000
1.402934e+003,-7.146172e+000
1.403898e+003,-7.869375e+000
1.404863e+003,-6.922187e+000
1.405827e+003,-4.478125e+000
1.406791e+003,-1.981719e+000
1.407755e+003,-2.853906e-001
1.408720e+003,-8.103125e-001
1.409684e+003,-3.039609e+000
1.410648e+003,-4.927187e+000
1.411612e+003,-5.523516e+000
1.412577e+003,-5.451484e+000
1.413541e+003,-4.837891e+000
1.414505e+003,-2.325156e+000
1.415469e+003,3.066406e-001
1.416433e+003,9.767187e-001
1.417398e+003,4.810938e-001
1.418362e+003,-4.965625e-001
1.419326e+003,-1.760000e+000
1.420290e+003,-2.627031e+000
1.421255e+003,-1.937656e+000
1.422219e+003,7.062500e-002
1.423183e+003,1.072188e+000
1.424147e+003,3.082812e-001
1.425112e+003,-1.845156e+000
1.426076e+003,-3.717656e+000
1.427040e+003,-7.484375e-001
1.428004e+003,3.359375e+000
1.428969e+003,5.487031e+000
1.429933e+003,5.633438e+000
1.430897e+003,4.409844e+000
1.431861e+003,2.998750e+000
1.432825e+003,2.297188e+000
1.433790e+003,2.017188e+000
1.434754e+003,1.942500e+000
1.435718e+003,2.375000e+000
1.436682e+003,3.443438e+000
1.437647e+003,4.519063e+000
1.438611e+003,4.854375e+000
1.439575e+003,5.246406e+000
1.440539e+003,5.960781e+000
1.441504e+003,6.185625e+000
1.442468e+003,6.087812e+000
1.443432e+003,5.972344e+000
1.444396e+003,5.260313e+000
1.445360e+003,3.665937e+000
1.446325e+003,2.252656e+000
1.447289e+003,1.737031e+000
1.448253e+003,2.348125e+000
1.449217e+003,4.234063e+000
1.450182e+003,5.490781e+000
1.451146e+003,6.163437e+000
1.452110e+003,6.052656e+000
1.453074e+003,5.448750e+000
1.454039e+003,4.560000e+000
1.455003e+003,3.440156e+000
1.455967e+003,2.282656e+000
1.456931e+003,1.244844e+000
1.457896e+003,7.031250e-002
1.458860e+003,-1.341406e+000
1.459824e+003,-1.462656e+000
1.460788e+003,-4.412500e-001
1.461752e+003,1.365312e+000
1.462717e+003,2.887813e+000
1.463681e+003,3.495938e+000
1.464645e+003,3.748125e+000
1.465609e+003,3.782187e+000
1.466574e+003,2.825781e+000
1.467538e+003,8.928125e-001
1.468502e+003,-4.131250e-001
1.469466e+003,-5.529687e-001
1.470431e+003,9.103125e-001
1.471395e+003,2.437656e+000
1.472359e+003,1.203906e+000
1.473323e+003,1.495312e-001
1.474287e+003,1.310156e+000
1.475252e+003,9.773437e-001
1.476216e+003,-1.611406e+000
1.477180e+003,-3.611250e+000
1.478144e+003,-3.402344e+000
1.479109e+003,-1.427500e+000
1.480073e+003,1.405938e+000
1.481037e+003,2.025625e+000
1.482001e+003,2.965625e-001
1.482966e+003,9.881250e-001
1.483930e+003,2.303125e+000
1.484894e+003,-4.262500e-001
1.485858e+003,-3.200000e+000
1.486823e+003,-2.326562e+000
1.487787e+003,-3.896875e-001
1.488751e+003,9.889063e-001
1.489715e+003,2.777188e+000
1.490679e+003,4.971250e+000
1.491644e+003,5.089531e+000
1.492608e+003,2.000781e+000
1.493572e+003,3.106250e-001
1.494536e+003,2.441562e+000
1.495501e+003,2.970469e+000
1.496465e+003,2.174062e+000
1.497429e+003,2.810469e+000
1.498393e+003,3.293906e+000
1.499358e+003,1.320000e+000
1.500322e+003,-2.487500e-001
1.501286e+003,7.884375e-001
1.502250e+003,3.185625e+000
1.503215e+003,5.311250e+000
1.504179e+003,6.457656e+000
1.505143e+003,4.847969e+000
1.506107e+003,2.680469e+000
1.507072e+003,2.010781e+000
1.508036e+003,2.518906e+000
1.509000e+003,3.857188e+000
1.509964e+003,4.650000e+000
1.510928e+003,5.297187e+000
1.511893e+003,6.605469e+000
1.512857e+003,7.522812e+000
1.513821e+003,7.247812e+000
1.514785e+003,7.165937e+000
1.515750e+003,8.640469e+000
1.516714e+003,1.022203e+001
1.517678e+003,9.906875e+000
1.518642e+003,8.605156e+000
1.519607e+003,7.671875e+000
1.520571e+003,6.702031e+000
1.521535e+003,6.530469e+000
1.522499e+003,7.607344e+000
1.523464e+003,8.802969e+000
1.524428e+003,9.628593e+000
1.525392e+003,9.969063e+000
1.526356e+003,1.023922e+001
1.527320e+003,1.093484e+001
1.528285e+003,1.177125e+001
1.529249e+003,1.212469e+001
1.530213e+003,1.242172e+001
1.531177e+003,1.234531e+001
1.532142e+003,9.793438e+000
1.533106e+003,9.999219e+000
1.534070e+003,1.236141e+001
1.535034e+003,1.438016e+001
1.535999e+003,1.601094e+001
1.536963e+003,1.474187e+001
1.537927e+003,1.264453e+001
1.538891e+003,1.269047e+001
1.539855e+003,1.276641e+001
1.540820e+003,1.003531e+001
1.541784e+003,7.161875e+000
1.542748e+003,6.815000e+000
1.543712e+003,8.224844e+000
1.544677e+003,1.248344e+001
1.545641e+003,1.363641e+001
1.546605e+003,1.138984e+001
1.547569e+003,1.110750e+001
1.548534e+003,1.160344e+001
1.549498e+003,1.081078e+001
1.550462e+003,9.643437e+000
1.551426e+003,8.885000e+000
1.552391e+003,8.762032e+000
1.553355e+003,9.208438e+000
1.554319e+003,9.796719e+000
1.555283e+003,1.041172e+001
1.556247e+003,1.111312e+001
1.557212e+003,1.162672e+001
1.558176e+003,1.028344e+001
1.559140e+003,7.438281e+000
1.560104e+003,8.125625e+000
1.561069e+003,1.028578e+001
1.562033e+003,1.047969e+001
1.562997e+003,9.911718e+000
1.563961e+003,1.047531e+001
1.564926e+003,1.077781e+001
1.565890e+003,9.345625e+000
1.566854e+003,7.039688e+000
1.567818e+003,5.289688e+000
1.568782e+003,5.061719e+000
1.569747e+003,6.829375e+000
1.570711e+003,7.833906e+000
1.571675e+003,7.658906e+000
1.572639e+003,7.278906e+000
1.573604e+003,7.164688e+000
1.574568e+003,7.966562e+000
1.575532e+003,9.172500e+000
1.576496e+003,1.028359e+001
1.577461e+003,1.164297e+001
1.578425e+003,1.284469e+001
1.579389e+003,1.295844e+001
1.580353e+003,1.257422e+001
1.581318e+003,1.327641e+001
1.582282e+003,1.500125e+001
1.583246e+003,1.700063e+001
1.584210e+003,1.878109e+001
1.585174e+003,1.824203e+001
1.586139e+003,1.762094e+001
1.587103e+003,1.788734e+001
1.588067e+003,1.822437e+001
1.589031e+003,1.863906e+001
1.589996e+003,1.961219e+001
1.590960e+003,2.096328e+001
1.591924e+003,2.236344e+001
1.592888e+003,2.358688e+001
1.593853e+003,2.397594e+001
1.594817e+003,2.343141e+001
1.595781e+003,2.332172e+001
1.596745e+003,2.385500e+001
1.597709e+003,2.402281e+001
1.598674e+003,2.374016e+001
1.599638e+003,2.248562e+001
1.600602e+003,2.244328e+001
1.601566e+003,2.562719e+001
1.602531e+003,2.711266e+001
1.603495e+003,2.633172e+001
1.604459e+003,2.422531e+001
1.605423e+003,2.223156e+001
1.606388e+003,2.243719e+001
1.607352e+003,2.381828e+001
1.608316e+003,2.369406e+001
1.609280e+003,2.262016e+001
1.610245e+003,2.237844e+001
1.611209e+003,2.186344e+001
1.612173e+003,2.027016e+001
1.613137e+003,1.870609e+001
1.614101e+003,1.729141e+001
1.615066e+003,1.526469e+001
1.616030e+003,1.401141e+001
1.616994e+003,1.573750e+001
1.617958e+003,1.785766e+001
1.618923e+003,1.604875e+001
1.619887e+003,1.309125e+001
1.620851e+003,1.387578e+001
1.621815e+003,1.593734e+001
1.622780e+003,1.486359e+001
1.623744e+003,1.290719e+001
1.624708e+003,1.277938e+001
1.625672e+003,1.250250e+001
1.626636e+003,1.146422e+001
1.627601e+003,1.226328e+001
1.628565e+003,1.362047e+001
1.629529e+003,1.291953e+001
1.630493e+003,1.132500e+001
1.631458e+003,9.709531e+000
1.632422e+003,8.999219e+000
1.633386e+003,9.068125e+000
1.634350e+003,8.998438e+000
1.635315e+003,8.694062e+000
1.636279e+003,8.397968e+000
1.637243e+003,8.258282e+000
1.638207e+003,8.475000e+000
1.639172e+003,8.940625e+000
1.640136e+003,9.304531e+000
1.641100e+003,9.864688e+000
1.642064e+003,9.042188e+000
1.643028e+003,7.155781e+000
1.643993e+003,4.009687e+000
1.644957e+003,1.746875e+000
1.645921e+003,2.396250e+000
1.646885e+003,3.269687e+000
1.647850e+003,3.867344e+000
1.648814e+003,3.798906e+000
1.649778e+003,3.332500e+000
1.650742e+003,3.528750e+000
1.651707e+003,4.143906e+000
1.652671e+003,4.264062e+000
1.653635e+003,3.713594e+000
1.654599e+003,2.257031e+000
1.655563e+003,1.080469e+000
1.656528e+003,2.346875e+000
1.657492e+003,2.580156e+000
1.658456e+003,-2.105469e+000
1.659420e+003,-3.004375e+000
1.660385e+003,-8.168750e-001
1.661349e+003,1.165625e-001
1.662313e+003,1.893750e-001
1.663277e+003,-4.737500e-001
1.664242e+003,-1.641875e+000
1.665206e+003,-2.427500e+000
1.666170e+003,-2.051875e+000
1.667134e+003,-1.374531e+000
1.668099e+003,-2.085313e+000
1.669063e+003,-4.026563e+000
1.670027e+003,-5.140313e+000
1.670991e+003,-4.682188e+000
1.671955e+003,-3.839688e+000
1.672920e+003,-3.929063e+000
1.673884e+003,-5.324531e+000
1.674848e+003,-6.498437e+000
1.675812e+003,-6.591875e+000
1.676777e+003,-6.496562e+000
1.677741e+003,-7.421250e+000
1.678705e+003,-8.242812e+000
1.679669e+003,-8.166718e+000
1.680634e+003,-8.058281e+000
1.681598e+003,-7.751094e+000
1.682562e+003,-5.957188e+000
1.683526e+003,-4.197187e+000
1.684490e+003,-4.638750e+000
1.685455e+003,-6.652344e+000
1.686419e+003,-9.427813e+000
1.687383e+003,-1.088875e+001
1.688347e+003,-8.795000e+000
1.689312e+003,-7.403750e+000
1.690276e+003,-7.263125e+000
1.691240e+003,-6.382031e+000
1.692204e+003,-5.310469e+000
1.693169e+003,-4.442344e+000
1.694133e+003,-4.553125e+000
1.695097e+003,-5.859531e+000
1.696061e+003,-6.067344e+000
1.697026e+003,-4.320313e+000
1.697990e+003,-2.175000e+000
1.698954e+003,-1.024844e+000
1.699918e+003,-1.441406e+000
1.700882e+003,-2.601563e+000
1.701847e+003,-2.530313e+000
1.702811e+003,-1.445156e+000
1.703775e+003,-2.125469e+000
1.704739e+003,-3.590312e+000
1.705704e+003,-3.251563e+000
1.706668e+003,-2.507344e+000
1.707632e+003,-3.652500e+000
1.708596e+003,-3.005312e+000
1.709561e+003,9.737500e-001
1.710525e+003,2.430000e+000
1.711489e+003,1.774844e+000
1.712453e+003,3.703125e-002
1.713417e+003,-1.783594e+000
1.714382e+003,-2.555312e+000
1.715346e+003,-2.067812e+000
1.716310e+003,-8.373438e-001
1.717274e+003,2.771875e-001
1.718239e+003,9.478125e-001
1.719203e+003,2.217187e+000
1.720167e+003,4.836563e+000
1.721131e+003,7.426406e+000
1.722096e+003,9.301875e+000
1.723060e+003,1.057172e+001
1.724024e+003,1.073938e+001
1.724988e+003,8.016250e+000
1.725953e+003,5.758125e+000
1.726917e+003,5.814219e+000
1.727881e+003,5.486875e+000
1.728845e+003,5.229688e+000
1.729809e+003,6.030156e+000
1.730774e+003,6.627188e+000
1.731738e+003,5.345938e+000
1.732702e+003,3.449844e+000
1.733666e+003,3.261406e+000
1.734631e+003,4.105937e+000
1.735595e+003,4.422344e+000
1.736559e+003,4.736250e+000
1.737523e+003,5.352812e+000
1.738488e+003,5.588906e+000
1.739452e+003,5.261406e+000
1.740416e+003,4.272188e+000
1.741380e+003,3.347031e+000
1.742344e+003,6.910156e+000
1.743309e+003,9.118906e+000
1.744273e+003,4.706563e+000
1.745237e+003,2.120156e+000
1.746201e+003,3.306406e+000
1.747166e+003,5.165781e+000
1.748130e+003,6.235312e+000
1.749094e+003,5.543906e+000
1.750058e+003,4.365469e+000
1.751023e+003,3.280000e+000
1.751987e+003,2.923594e+000
1.752951e+003,3.979219e+000
1.753915e+003,5.399219e+000
1.754880e+003,5.890000e+000
1.755844e+003,5.729531e+000
1.756808e+003,5.191094e+000
1.757772e+003,4.645625e+000
1.758736e+003,3.923594e+000
1.759701e+003,3.712188e+000
1.760665e+003,4.544063e+000
1.761629e+003,4.852969e+000
1.762593e+003,5.056250e+000
1.763558e+003,6.451406e+000
1.764522e+003,6.259844e+000
1.765486e+003,3.816562e+000
1.766450e+003,3.097812e+000
1.767415e+003,3.585781e+000
1.768379e+003,2.590000e+000
1.769343e+003,1.432344e+000
1.770307e+003,2.026562e+000
1.771271e+003,3.287188e+000
1.772236e+003,4.131406e+000
1.773200e+003,4.449531e+000
1.774164e+003,3.996094e+000
1.775128e+003,3.897500e+000
1.776093e+003,4.605156e+000
1.777057e+003,3.754062e+000
1.778021e+003,1.731562e+000
1.778985e+003,1.817969e+000
1.779950e+003,2.796875e+000
1.780914e+003,4.197500e+000
1.781878e+003,4.645781e+000
1.782842e+003,2.072969e+000
1.783807e+003,1.687969e+000
1.784771e+003,3.937031e+000
1.785735e+003,4.471094e+000
1.786699e+003,3.925469e+000
1.787663e+003,5.534219e+000
1.788628e+003,7.633438e+000
1.789592e+003,7.991406e+000
1.790556e+003,7.378906e+000
1.791520e+003,6.557031e+000
1.792485e+003,5.078281e+000
1.793449e+003,3.263594e+000
1.794413e+003,3.139219e+000
1.795377e+003,5.214375e+000
1.796342e+003,5.379375e+000
1.797306e+003,3.099531e+000
1.798270e+003,2.582500e+000
1.799234e+003,3.205781e+000
1.800198e+003,3.024531e+000
1.801163e+003,3.504531e+000
1.802127e+003,2.709531e+000
1.803091e+003,3.562969e+000
1.804055e+003,5.914844e+000
1.805020e+003,3.864531e+000
1.805984e+003,5.639063e-001
1.806948e+003,8.304688e-001
1.807912e+003,2.931562e+000
1.808877e+003,5.334375e+000
1.809841e+003,6.402187e+000
1.810805e+003,5.526563e+000
1.811769e+003,4.730937e+000
1.812734e+003,4.678750e+000
1.813698e+003,4.807031e+000
1.814662e+003,5.396094e+000
1.815626e+003,5.603906e+000
1.816590e+003,5.003594e+000
1.817555e+003,5.239062e+000
1.818519e+003,5.984687e+000
1.819483e+003,7.072344e+000
1.820447e+003,8.734688e+000
1.821412e+003,9.378593e+000
1.822376e+003,6.898594e+000
1.823340e+003,4.210469e+000
1.824304e+003,3.941562e+000
1.825269e+003,5.318594e+000
1.826233e+003,7.759531e+000
1.827197e+003,9.219219e+000
1.828161e+003,1.091938e+001
1.829126e+003,1.027984e+001
1.830090e+003,8.281250e+000
1.831054e+003,8.086094e+000
1.832018e+003,8.124531e+000
1.832983e+003,6.768125e+000
1.833947e+003,5.500312e+000
1.834911e+003,5.445781e+000
1.835875e+003,6.982344e+000
1.836839e+003,9.476875e+000
1.837804e+003,9.851250e+000
1.838768e+003,7.331250e+000
1.839732e+003,5.537969e+000
1.840696e+003,5.486406e+000
1.841661e+003,7.335312e+000
1.842625e+003,8.197657e+000
1.843589e+003,5.934531e+000
1.844553e+003,4.731406e+000
1.845518e+003,5.523750e+000
1.846482e+003,6.070781e+000
1.847446e+003,5.885469e+000
1.848410e+003,6.089844e+000
1.849375e+003,6.382969e+000
1.850339e+003,4.536719e+000
1.851303e+003,2.654687e+000
1.852267e+003,2.564063e+000
1.853231e+003,3.290937e+000
1.854196e+003,3.731719e+000
1.855160e+003,3.197500e+000
1.856124e+003,2.264219e+000
1.857088e+003,1.409219e+000
1.858053e+003,1.303125e+000
1.859017e+003,2.389219e+000
1.859981e+003,3.109375e+000
1.860945e+003,2.593906e+000
1.861910e+003,2.252344e+000
1.862874e+003,1.957344e+000
1.863838e+003,1.643125e+000
1.864802e+003,1.274063e+000
1.865766e+003,-1.634375e-001
1.866731e+003,-1.210781e+000
1.867695e+003,-4.281250e-001
1.868659e+003,7.437500e-002
1.869623e+003,-2.587500e-001
1.870588e+003,3.868750e-001
1.871552e+003,2.051406e+000
1.872516e+003,3.794844e+000
1.873480e+003,4.210000e+000
1.874445e+003,1.840781e+000
1.875409e+003,-3.859375e-002
1.876373e+003,1.127031e+000
1.877337e+003,2.750937e+000
1.878302e+003,3.096094e+000
1.879266e+003,1.747969e+000
1.880230e+003,2.731250e-001
1.881194e+003,-7.035937e-001
1.882158e+003,-1.315625e+000
1.883123e+003,-1.246406e+000
1.884087e+003,-1.610938e-001
1.885051e+003,1.890469e+000
1.886015e+003,3.874531e+000
1.886980e+003,4.301562e+000
1.887944e+003,3.531250e+000
1.888908e+003,2.617500e+000
1.889872e+003,7.401562e-001
1.890837e+003,-1.405000e+000
1.891801e+003,-1.190938e+000
1.892765e+003,6.875000e-001
1.893729e+003,4.641250e+000
1.894693e+003,5.359063e+000
1.895658e+003,5.312500e-002
1.896622e+003,1.254687e-001
1.897586e+003,3.250781e+000
1.898550e+003,4.302031e+000
1.899515e+003,4.507031e+000
1.900479e+003,2.858281e+000
1.901443e+003,3.241875e+000
1.902407e+003,6.136406e+000
1.903372e+003,6.065312e+000
1.904336e+003,4.591406e+000
1.905300e+003,5.459375e+000
1.906264e+003,7.943906e+000
1.907229e+003,1.096828e+001
1.908193e+003,1.148703e+001
1.909157e+003,8.789375e+000
1.910121e+003,6.153125e+000
1.911085e+003,5.582031e+000
1.912050e+003,7.497812e+000
1.913014e+003,1.037891e+001
1.913978e+003,1.112687e+001
1.914942e+003,1.029047e+001
1.915907e+003,9.680469e+000
1.916871e+003,9.679218e+000
1.917835e+003,1.006734e+001
1.918799e+003,1.037172e+001
1.919764e+003,1.089891e+001
1.920728e+003,9.836719e+000
1.921692e+003,8.575937e+000
1.922656e+003,1.003922e+001
1.923620e+003,1.118000e+001
1.924585e+003,9.318281e+000
1.925549e+003,7.940156e+000
1.926513e+003,8.281563e+000
1.927477e+003,9.464219e+000
1.928442e+003,1.099891e+001
1.929406e+003,1.270469e+001
1.930370e+003,1.341969e+001
1.931334e+003,1.244953e+001
1.932299e+003,1.167453e+001
1.933263e+003,1.143000e+001
1.934227e+003,9.894844e+000
1.935191e+003,7.625000e+000
1.936156e+003,7.632969e+000
1.937120e+003,8.734844e+000
1.938084e+003,8.749687e+000
1.939048e+003,8.765469e+000
1.940012e+003,9.332500e+000
1.940977e+003,1.013031e+001
1.941941e+003,1.070828e+001
1.942905e+003,9.674219e+000
1.943869e+003,7.762344e+000
1.944834e+003,7.083281e+000
1.945798e+003,7.035000e+000
1.946762e+003,7.025312e+000
1.947726e+003,7.485938e+000
1.948691e+003,8.421250e+000
1.949655e+003,8.640469e+000
1.950619e+003,7.182344e+000
1.951583e+003,6.235625e+000
1.952547e+003,5.771563e+000
1.953512e+003,4.907500e+000
1.954476e+003,3.712031e+000
1.955440e+003,5.006250e-001
1.956404e+003,1.029688e-001
1.957369e+003,3.420625e+000
1.958333e+003,2.704062e+000
1.959297e+003,8.092188e-001
1.960261e+003,3.737813e+000
1.961226e+003,6.295156e+000
1.962190e+003,3.752812e+000
1.963154e+003,1.529219e+000
1.964118e+003,9.057813e-001
1.965083e+003,8.796875e-001
1.966047e+003,1.304219e+000
1.967011e+003,1.391875e+000
1.967975e+003,1.378438e+000
1.968939e+003,2.382188e+000
1.969904e+003,2.923906e+000
1.970868e+003,1.956406e+000
1.971832e+003,-3.285938e-001
1.972796e+003,-2.111719e+000
1.973761e+003,-1.451875e+000
1.974725e+003,3.984375e-001
1.975689e+003,1.300781e+000
1.976653e+003,1.520781e+000
1.977618e+003,2.320781e+000
1.978582e+003,4.403438e+000
1.979546e+003,6.326406e+000
1.980510e+003,4.890000e+000
1.981474e+003,6.765625e-001
1.982439e+003,-2.250313e+000
1.983403e+003,-2.748281e+000
1.984367e+003,-6.225000e-001
1.985331e+003,1.023750e+000
1.986296e+003,1.040313e+000
1.987260e+003,1.013906e+000
1.988224e+003,1.227500e+000
1.989188e+003,1.010625e+000
1.990153e+003,-1.575000e-001
1.991117e+003,4.204687e-001
1.992081e+003,1.800781e+000
1.993045e+003,1.352813e+000
1.994010e+003,4.921875e-001
1.994974e+003,-1.349687e+000
1.995938e+003,-1.210781e+000
1.996902e+003,3.665625e-001
1.997866e+003,-8.515625e-001
1.998831e+003,-1.017656e+000
1.999795e+003,1.990781e+000
2.000759e+003,2.243594e+000
2.001723e+003,8.264062e-001
2.002688e+003,2.597344e+000
2.003652e+003,5.169844e+000
2.004616e+003,4.747031e+000
2.005580e+003,3.309062e+000
2.006545e+003,2.248594e+000
2.007509e+003,3.618906e+000
2.008473e+003,6.448438e+000
2.009437e+003,6.428906e+000
2.010401e+003,4.186406e+000
2.011366e+003,2.310937e+000
2.012330e+003,8.993750e-001
2.013294e+003,-2.265625e-002
2.014258e+003,1.058437e+000
2.015223e+003,3.164219e+000
2.016187e+003,2.876406e+000
2.017151e+003,1.699844e+000
2.018115e+003,4.304375e+000
2.019080e+003,7.094375e+000
2.020044e+003,4.632187e+000
2.021008e+003,2.065469e+000
2.021972e+003,2.430625e+000
2.022937e+003,2.540313e+000
2.023901e+003,2.962188e+000
2.024865e+003,3.847969e+000
2.025829e+003,4.412813e+000
2.026793e+003,5.038281e+000
2.027758e+003,5.808906e+000
2.028722e+003,7.005625e+000
2.029686e+003,7.170781e+000
2.030650e+003,5.742031e+000
2.031615e+003,5.091875e+000
2.032579e+003,5.703437e+000
2.033543e+003,8.921406e+000
2.034507e+003,9.606406e+000
2.035472e+003,4.799375e+000
2.036436e+003,3.694844e+000
2.037400e+003,6.128750e+000
2.038364e+003,6.341875e+000
2.039328e+003,5.720625e+000
2.040293e+003,4.951562e+000
2.041257e+003,4.251094e+000
2.042221e+003,3.980937e+000
2.043185e+003,4.010781e+000
2.044150e+003,4.693125e+000
2.045114e+003,4.184688e+000
2.046078e+003,3.770625e+000
2.047042e+003,5.927969e+000
2.048007e+003,6.077656e+000
2.048971e+003,2.902656e+000
2.049935e+003,1.032031e+000
2.050899e+003,1.253125e+000
2.051864e+003,3.482656e+000
2.052828e+003,5.074687e+000
2.053792e+003,3.547812e+000
2.054756e+003,1.368281e+000
2.055720e+003,2.767187e-001
2.056685e+003,-6.731250e-001
2.057649e+003,-1.621094e+000
2.058613e+003,-9.443750e-001
2.059577e+003,4.234375e-002
2.060542e+003,-1.784375e-001
2.061506e+003,5.448437e-001
2.062470e+003,2.547969e+000
2.063434e+003,2.113125e+000
2.064399e+003,-6.995313e-001
2.065363e+003,-3.186875e+000
2.066327e+003,-4.454688e+000
2.067291e+003,-3.989844e+000
2.068256e+003,-3.647500e+000
2.069220e+003,-4.913125e+000
2.070184e+003,-5.022812e+000
2.071148e+003,-3.557500e+000
2.072113e+003,-3.540781e+000
2.073077e+003,-4.684375e+000
2.074041e+003,-5.196875e+000
2.075005e+003,-5.067500e+000
2.075969e+003,-3.961719e+000
2.076934e+003,-3.451719e+000
2.077898e+003,-4.033438e+000
2.078862e+003,-3.860781e+000
2.079826e+003,-3.465938e+000
2.080791e+003,-2.595313e+000
2.081755e+003,-2.189219e+000
2.082719e+003,-3.540156e+000
2.083683e+003,-3.987344e+000
2.084647e+003,-3.798125e+000
2.085612e+003,-4.310000e+000
2.086576e+003,-4.637969e+000
2.087540e+003,-2.988125e+000
2.088504e+003,-1.419375e+000
2.089469e+003,-1.911719e+000
2.090433e+003,-8.567188e-001
2.091397e+003,1.180938e+000
2.092361e+003,3.409844e+000
2.093326e+003,4.559375e+000
2.094290e+003,1.900469e+000
2.095254e+003,-1.804219e+000
2.096218e+003,-6.203594e+000
2.097183e+003,-7.234375e+000
2.098147e+003,-5.077813e+000
2.099111e+003,-3.360156e+000
2.100075e+003,-2.060313e+000
2.101040e+003,-3.532813e-001
2.102004e+003,9.470313e-001
2.102968e+003,6.179687e-001
2.103932e+003,1.991094e+000
2.104896e+003,3.302187e+000
2.105861e+003,7.650000e-001
2.106825e+003,-1.517344e+000
2.107789e+003,-1.010469e+000
2.108753e+003,-4.948438e-001
2.109718e+003,-1.014375e+000
2.110682e+003,-1.732500e+000
2.111646e+003,-2.274531e+000
2.112610e+003,-3.026094e+000
2.113574e+003,-2.913281e+000
2.114539e+003,-1.790313e+000
2.115503e+003,1.465625e-001
2.116467e+003,2.202969e+000
2.117431e+003,9.235938e-001
2.118396e+003,-7.298437e-001
2.119360e+003,7.218750e-001
2.120324e+003,2.520156e+000
2.121288e+003,2.858281e+000
2.122253e+003,2.610938e+000
2.123217e+003,2.814219e+000
2.124181e+003,4.158125e+000
2.125145e+003,5.056875e+000
2.126110e+003,3.975000e+000
2.127074e+003,2.775156e+000
2.128038e+003,2.833750e+000
2.129002e+003,2.561719e+000
2.129967e+003,1.377344e+000
2.130931e+003,9.101563e-001
2.131895e+003,6.806250e-001
2.132859e+003,-2.314063e-001
2.133823e+003,-3.895313e-001
2.134788e+003,3.220313e-001
2.135752e+003,1.629375e+000
2.136716e+003,2.443438e+000
2.137680e+003,1.018438e+000
2.138645e+003,-8.328125e-001
2.139609e+003,-1.615156e+000
2.140573e+003,-5.307813e-001
2.141537e+003,1.793437e+000
2.142501e+003,3.987656e+000
2.143466e+003,4.689688e+000
2.144430e+003,1.867656e+000
2.145394e+003,-9.968750e-001
2.146358e+003,-9.982812e-001
2.147323e+003,3.270313e-001
2.148287e+003,1.182812e+000
2.149251e+003,1.990625e-001
2.150215e+003,-1.016562e+000
2.151180e+003,5.601562e-001
2.152144e+003,1.289531e+000
2.153108e+003,-1.131250e+000
2.154072e+003,-2.331563e+000
2.155037e+003,-1.348594e+000
2.156001e+003,-8.387500e-001
2.156965e+003,-8.959375e-001
2.157929e+003,-4.231250e-001
2.158894e+003,-1.116406e+000
2.159858e+003,-3.317812e+000
2.160822e+003,-4.155625e+000
2.161786e+003,-3.539219e+000
2.162750e+003,-2.720625e+000
2.163715e+003,-2.835469e+000
2.164679e+003,-4.127656e+000
2.165643e+003,-4.820625e+000
2.166607e+003,-4.393125e+000
2.167572e+003,-3.806562e+000
2.168536e+003,-4.045469e+000
2.169500e+003,-5.075156e+000
2.170464e+003,-5.913750e+000
2.171428e+003,-5.781719e+000
2.172393e+003,-4.456563e+000
2.173357e+003,-3.005938e+000
2.174321e+003,-3.146094e+000
2.175285e+003,-3.923750e+000
2.176250e+003,-2.968437e+000
2.177214e+003,-2.288281e+000
2.178178e+003,-3.573437e+000
2.179142e+003,-2.890469e+000
2.180107e+003,-4.726563e-001
2.181071e+003,-1.113594e+000
2.182035e+003,-3.352187e+000
2.182999e+003,-4.248906e+000
2.183964e+003,-3.071563e+000
2.184928e+003,-1.018594e+000
2.185892e+003,-3.246094e+000
2.186856e+003,-7.632187e+000
2.187821e+003,-7.680000e+000
2.188785e+003,-5.413437e+000
2.189749e+003,-4.135781e+000
2.190713e+003,-4.756875e+000
2.191677e+003,-6.573750e+000
2.192642e+003,-6.550156e+000
2.193606e+003,-5.197969e+000
2.194570e+003,-4.422812e+000
2.195534e+003,-4.290937e+000
2.196499e+003,-5.033906e+000
2.197463e+003,-5.188125e+000
2.198427e+003,-4.553594e+000
2.199391e+003,-4.452031e+000
2.200355e+003,-4.256719e+000
2.201320e+003,-3.427969e+000
2.202284e+003,-2.871250e+000
2.203248e+003,-2.632813e+000
2.204212e+003,-1.718594e+000
2.205177e+003,-1.400000e+000
2.206141e+003,-3.654844e+000
2.207105e+003,-5.401406e+000
2.208069e+003,-4.290937e+000
2.209034e+003,-3.713281e+000
2.209998e+003,-4.433437e+000
2.210962e+003,-3.922656e+000
2.211926e+003,-3.467656e+000
2.212891e+003,-5.104063e+000
2.213855e+003,-4.843438e+000
2.214819e+003,-1.850469e+000
2.215783e+003,-1.519844e+000
2.216748e+003,-3.103125e+000
2.217712e+003,-2.441406e+000
2.218676e+003,-5.473437e-001
2.219640e+003,6.759375e-001
2.220604e+003,1.752031e+000
2.221569e+003,3.048906e+000
2.222533e+003,2.944688e+000
2.223497e+003,1.755781e+000
2.224461e+003,1.118594e+000
2.225426e+003,8.526562e-001
2.226390e+003,7.956250e-001
2.227354e+003,5.887500e-001
2.228318e+003,1.290625e-001
2.229282e+003,-1.626562e-001
2.230247e+003,-5.531250e-002
2.231211e+003,6.653125e-001
2.232175e+003,3.893750e-001
2.233139e+003,-1.308437e+000
2.234104e+003,-2.135781e+000
2.235068e+003,-2.125625e+000
2.236032e+003,-2.159688e+000
2.236996e+003,-2.240313e+000
2.237961e+003,-2.498125e+000
2.238925e+003,-1.779688e+000
2.239889e+003,-4.050000e-001
2.240853e+003,3.568750e-001
2.241818e+003,-4.703125e-002
2.242782e+003,-1.587813e+000
2.243746e+003,-1.616094e+000
2.244710e+003,-2.125000e-001
2.245675e+003,-5.542188e-001
2.246639e+003,-1.497500e+000
2.247603e+003,-9.128125e-001
2.248567e+003,-2.670313e-001
2.249531e+003,-2.020313e-001
2.250496e+003,-1.417187e+000
2.251460e+003,-2.900781e+000
2.252424e+003,-2.282031e+000
2.253388e+003,-1.772656e+000
2.254353e+003,-2.400781e+000
2.255317e+003,-2.126719e+000
2.256281e+003,-1.550156e+000
2.257245e+003,-1.948750e+000
2.258209e+003,-2.791094e+000
2.259174e+003,-3.679688e+000
2.260138e+003,-3.996875e+000
2.261102e+003,-4.087500e+000
2.262066e+003,-4.930781e+000
2.263031e+003,-5.517813e+000
2.263995e+003,-5.043750e+000
2.264959e+003,-5.016875e+000
2.265923e+003,-6.840312e+000
2.266888e+003,-7.205625e+000
2.267852e+003,-5.612187e+000
2.268816e+003,-5.763125e+000
2.269780e+003,-6.239844e+000
2.270745e+003,-3.431406e+000
2.271709e+003,-1.990156e+000
2.272673e+003,-3.816406e+000
2.273637e+003,-5.767188e+000
2.274602e+003,-6.870469e+000
2.275566e+003,-6.333125e+000
2.276530e+003,-5.533438e+000
2.277494e+003,-6.676094e+000
2.278458e+003,-7.947344e+000
2.279423e+003,-8.751250e+000
2.280387e+003,-8.920468e+000
2.281351e+003,-8.861719e+000
2.282315e+003,-9.360469e+000
2.283280e+003,-8.994062e+000
2.284244e+003,-8.632500e+000
2.285208e+003,-9.134375e+000
2.286172e+003,-1.006688e+001
2.287136e+003,-1.492031e+001
2.288101e+003,-1.528891e+001
2.289065e+003,-4.610156e+000
2.290029e+003,-1.495000e+000
2.290993e+003,-5.127031e+000
2.291958e+003,-6.957969e+000
2.292922e+003,-7.439063e+000
2.293886e+003,-6.322969e+000
2.294850e+003,-5.816250e+000
2.295815e+003,-7.450469e+000
2.296779e+003,-1.052891e+001
2.297743e+003,-1.263250e+001
2.298707e+003,-9.533594e+000
2.299672e+003,-5.717500e+000
2.300636e+003,-4.558281e+000
2.301600e+003,-5.538125e+000
2.302564e+003,-7.131563e+000
2.303529e+003,-5.037031e+000
2.304493e+003,-2.631562e+000
2.305457e+003,-3.671562e+000
2.306421e+003,-6.491562e+000
2.307385e+003,-9.947657e+000
2.308350e+003,-9.827188e+000
2.309314e+003,-7.034375e+000
2.310278e+003,-4.359687e+000
2.311242e+003,-3.357344e+000
2.312207e+003,-4.294063e+000
2.313171e+003,-4.017656e+000
2.314135e+003,-2.817031e+000
2.315099e+003,-3.918750e+000
2.316063e+003,-5.220469e+000
2.317028e+003,-4.745469e+000
2.317992e+003,-4.560781e+000
2.318956e+003,-5.291563e+000
2.319921e+003,-6.332969e+000
2.320885e+003,-6.608281e+000
2.321849e+003,-4.984375e+000
2.322813e+003,-2.839219e+000
2.323778e+003,-1.935313e+000
2.324742e+003,-3.568281e+000
2.325706e+003,-4.974219e+000
2.326670e+003,-3.430156e+000
2.327635e+003,-1.408750e+000
2.328599e+003,-4.690625e-001
2.329563e+003,-1.237969e+000
2.330527e+003,-2.206406e+000
2.331491e+003,-2.428594e+000
2.332456e+003,-3.202656e+000
2.333420e+003,-4.405313e+000
2.334384e+003,-3.565312e+000
2.335348e+003,-1.866250e+000
2.336313e+003,-4.560156e+000
2.337277e+003,-5.851563e+000
2.338241e+003,-2.515000e+000
2.339205e+003,-5.578125e-001
2.340169e+003,-8.253125e-001
2.341134e+003,-2.812344e+000
2.342098e+003,-3.952500e+000
2.343062e+003,-2.217031e+000
2.344026e+003,-7.009375e-001
2.344991e+003,-4.187500e-002
2.345955e+003,-1.103125e-001
2.346919e+003,-3.096875e-001
2.347883e+003,6.707813e-001
2.348848e+003,3.712500e-001
2.349812e+003,-1.976094e+000
2.350776e+003,-3.144375e+000
2.351740e+003,-3.592187e+000
2.352705e+003,-3.398438e+000
2.353669e+003,-2.928906e+000
2.354633e+003,-4.053125e+000
2.355597e+003,-3.807656e+000
2.356562e+003,-2.393906e+000
2.357526e+003,-2.514688e+000
2.358490e+003,-3.584063e+000
2.359454e+003,-6.053125e+000
2.360418e+003,-7.605000e+000
2.361383e+003,-7.232969e+000
2.362347e+003,-6.596250e+000
2.363311e+003,-5.301406e+000
2.364275e+003,-2.960625e+000
2.365240e+003,-2.560937e+000
2.366204e+003,-4.536875e+000
2.367168e+003,-3.756406e+000
2.368132e+003,-1.846719e+000
2.369096e+003,-2.910781e+000
2.370061e+003,-3.951875e+000
2.371025e+003,-3.576719e+000
2.371989e+003,-4.192812e+000
2.372953e+003,-5.945000e+000
2.373918e+003,-7.892500e+000
2.374882e+003,-8.818906e+000
2.375846e+003,-7.951250e+000
2.376810e+003,-6.200313e+000
2.377775e+003,-4.900938e+000
2.378739e+003,-5.768906e+000
2.379703e+003,-6.808906e+000
2.380667e+003,-5.726875e+000
2.381632e+003,-3.965625e+000
2.382596e+003,-3.179375e+000
2.383560e+003,-5.596875e+000
2.384524e+003,-8.051875e+000
2.385489e+003,-7.617188e+000
2.386453e+003,-7.508125e+000
2.387417e+003,-8.333750e+000
2.388381e+003,-8.340938e+000
2.389345e+003,-8.283438e+000
2.390310e+003,-8.690156e+000
2.391274e+003,-9.172344e+000
2.392238e+003,-9.868281e+000
2.393202e+003,-8.327031e+000
2.394167e+003,-5.582031e+000
2.395131e+003,-3.280469e+000
2.396095e+003,-1.948906e+000
2.397059e+003,-3.001250e+000
2.398023e+003,-4.114687e+000
2.398988e+003,-4.634062e+000
2.399952e+003,-6.142813e+000
2.400916e+003,-7.023438e+000
2.401880e+003,-6.666094e+000
2.402845e+003,-6.444219e+000
2.403809e+003,-6.100313e+000
2.404773e+003,-4.916250e+000
2.405737e+003,-4.413906e+000
2.406702e+003,-5.522031e+000
2.407666e+003,-5.738281e+000
2.408630e+003,-4.855000e+000
2.409594e+003,-4.409844e+000
2.410559e+003,-3.168437e+000
2.411523e+003,-6.367188e-001
2.412487e+003,-7.629688e-001
2.413451e+003,-3.209375e+000
2.414416e+003,-3.109062e+000
2.415380e+003,-2.020625e+000
2.416344e+003,-2.481563e+000
2.417308e+003,-2.471719e+000
2.418272e+003,-1.700156e+000
2.419237e+003,-2.537812e+000
2.420201e+003,-2.641250e+000
2.421165e+003,-6.071875e-001
2.422129e+003,1.079687e+000
2.423094e+003,1.805000e+000
2.424058e+003,3.946875e-001
2.425022e+003,-1.073906e+000
2.425986e+003,-8.125000e-002
2.426950e+003,1.721875e-001
2.427915e+003,-5.242187e-001
2.428879e+003,-8.460938e-001
2.429843e+003,-1.313594e+000
2.430807e+003,-5.535938e-001
2.431772e+003,-3.401563e-001
2.432736e+003,-1.240469e+000
2.433700e+003,-2.614844e+000
2.434664e+003,-3.287812e+000
2.435629e+003,-1.533281e+000
2.436593e+003,-4.362500e-001
2.437557e+003,-9.165625e-001
2.438521e+003,-2.479687e-001
2.439486e+003,2.348594e+000
2.440450e+003,4.212812e+000
2.441414e+003,5.340781e+000
2.442378e+003,6.004687e+000
2.443343e+003,3.609688e+000
2.444307e+003,5.131250e-001
2.445271e+003,5.243750e-001
2.446235e+003,8.376563e-001
2.447199e+003,6.290625e-001
2.448164e+003,1.624688e+000
2.449128e+003,3.097344e+000
2.450092e+003,2.904219e+000
2.451056e+003,2.597031e+000
2.452021e+003,3.838125e+000
2.452985e+003,3.391875e+000
2.453949e+003,1.997969e+000
2.454913e+003,1.961406e+000
2.455877e+003,1.794062e+000
2.456842e+003,1.296875e+000
2.457806e+003,-7.926562e-001
2.458770e+003,-2.088125e+000
2.459734e+003,2.864844e+000
2.460699e+003,6.607969e+000
2.461663e+003,3.884531e+000
2.462627e+003,2.223438e+000
2.463591e+003,2.735312e+000
2.464556e+003,3.955469e+000
2.465520e+003,4.525156e+000
2.466484e+003,2.193906e+000
2.467448e+003,1.050469e+000
2.468413e+003,1.659063e+000
2.469377e+003,1.180156e+000
2.470341e+003,1.437500e+000
2.471305e+003,3.220313e+000
2.472270e+003,4.436563e+000
2.473234e+003,3.949063e+000
2.474198e+003,8.203125e-001
2.475162e+003,-1.724531e+000
2.476126e+003,-9.379687e-001
2.477091e+003,9.232813e-001
2.478055e+003,1.993594e+000
2.479019e+003,-1.895313e-001
2.479983e+003,-1.293437e+000
2.480948e+003,2.088594e+000
2.481912e+003,3.339219e+000
2.482876e+003,1.618750e+000
2.483840e+003,-4.953125e-002
2.484804e+003,-6.151562e-001
2.485769e+003,6.782812e-001
2.486733e+003,3.962500e-001
2.487697e+003,-1.004219e+000
2.488661e+003,-1.481562e+000
2.489626e+003,-1.629844e+000
2.490590e+003,-5.234375e-001
2.491554e+003,2.765625e-002
2.492518e+003,-4.471875e-001
2.493483e+003,-3.704375e+000
2.494447e+003,-6.693281e+000
2.495411e+003,-6.679375e+000
2.496375e+003,-4.954062e+000
2.497340e+003,-2.741719e+000
2.498304e+003,-4.250937e+000
2.499268e+003,-6.758281e+000
2.500232e+003,-7.228281e+000
2.501197e+003,-6.063281e+000
2.502161e+003,-4.424219e+000
2.503125e+003,-4.465000e+000
2.504089e+003,-5.241562e+000
2.505053e+003,-5.395000e+000
2.506018e+003,-5.190625e+000
2.506982e+003,-4.565000e+000
2.507946e+003,-2.465625e+000
2.508910e+003,-1.121875e+000
2.509875e+003,-1.932188e+000
2.510839e+003,-1.716719e+000
2.511803e+003,-6.650000e-001
2.512767e+003,-1.126250e+000
2.513731e+003,-1.329844e+000
2.514696e+003,-2.059375e-001
2.515660e+003,-1.112656e+000
2.516624e+003,-3.056562e+000
2.517588e+003,-5.152031e+000
2.518553e+003,-5.647812e+000
2.519517e+003,-2.550313e+000
2.520481e+003,-1.946406e+000
2.521445e+003,-2.564844e+000
2.522410e+003,7.089062e-001
2.523374e+003,2.354219e+000
2.524338e+003,-6.132813e-001
2.525302e+003,-1.097813e+000
2.526267e+003,7.337500e-001
2.527231e+003,9.843750e-002
2.528195e+003,-5.495312e-001
2.529159e+003,1.700000e-001
2.530124e+003,-4.970312e-001
2.531088e+003,-1.507187e+000
2.532052e+003,-5.754688e-001
2.533016e+003,-8.928125e-001
2.533980e+003,-2.317500e+000
2.534945e+003,-6.657813e-001
2.535909e+003,1.751094e+000
2.536873e+003,8.945313e-001
2.537837e+003,4.650000e-001
2.538802e+003,2.848594e+000
2.539766e+003,2.837656e+000
2.540730e+003,1.592813e+000
2.541694e+003,1.847656e+000
2.542658e+003,9.128125e-001
2.543623e+003,-1.693906e+000
2.544587e+003,-7.256250e-001
2.545551e+003,1.970469e+000
2.546515e+003,2.205625e+000
2.547480e+003,2.149688e+000
2.548444e+003,2.922812e+000
2.549408e+003,3.760156e+000
2.550372e+003,3.746562e+000
2.551337e+003,2.423281e+000
2.552301e+003,2.527656e+000
2.553265e+003,4.509375e+000
2.554229e+003,6.079844e+000
2.555194e+003,5.900000e+000
2.556158e+003,4.270156e+000
2.557122e+003,3.328125e+000
2.558086e+003,3.276094e+000
2.559051e+003,4.304531e+000
2.560015e+003,4.256563e+000
2.560979e+003,7.451562e-001
2.561943e+003,4.187500e-001
2.562907e+003,2.642500e+000
2.563872e+003,4.222813e+000
2.564836e+003,4.635938e+000
2.565800e+003,3.902344e+000
2.566764e+003,3.369062e+000
2.567729e+003,2.892656e+000
2.568693e+003,2.963281e+000
2.569657e+003,3.427656e+000
2.570621e+003,4.147656e+000
2.571585e+003,3.577812e+000
2.572550e+003,1.974062e+000
2.573514e+003,1.180938e+000
2.574478e+003,1.831875e+000
2.575442e+003,3.445625e+000
2.576407e+003,2.269063e+000
2.577371e+003,-3.178125e-001
2.578335e+003,-7.831250e-001
2.579299e+003,-8.673437e-001
2.580264e+003,-1.004844e+000
2.581228e+003,9.718750e-002
2.582192e+003,1.275781e+000
2.583156e+003,1.752344e+000
2.584121e+003,3.245000e+000
2.585085e+003,5.041719e+000
2.586049e+003,5.757187e+000
2.587013e+003,4.609844e+000
2.587978e+003,1.565625e-001
2.588942e+003,-2.130000e+000
2.589906e+003,-8.295313e-001
2.590870e+003,9.312500e-001
2.591834e+003,1.574062e+000
2.592799e+003,-1.017188e-001
2.593763e+003,6.896875e-001
2.594727e+003,3.041563e+000
2.595691e+003,5.209375e-001
2.596656e+003,-3.025469e+000
2.597620e+003,-4.208437e+000
2.598584e+003,-1.683594e+000
2.599548e+003,1.543437e+000
2.600512e+003,7.312500e-001
2.601477e+003,-2.101562e-001
2.602441e+003,9.481250e-001
2.603405e+003,2.405156e+000
2.604369e+003,4.136250e+000
2.605334e+003,7.024844e+000
2.606298e+003,7.085781e+000
2.607262e+003,3.665313e+000
2.608226e+003,-9.989063e-001
2.609191e+003,-4.454375e+000
2.610155e+003,-4.499219e+000
2.611119e+003,-3.157500e+000
2.612083e+003,-1.285938e+000
2.613048e+003,4.573438e-001
2.614012e+003,1.539219e+000
2.614976e+003,1.139219e+000
2.615940e+003,8.282812e-001
2.616905e+003,1.279844e+000
2.617869e+003,1.619844e+000
2.618833e+003,1.542812e+000
2.619797e+003,1.921875e-001
2.620761e+003,-4.262500e-001
2.621726e+003,-7.323437e-001
2.622690e+003,-1.181406e+000
2.623654e+003,-2.006250e-001
2.624618e+003,2.049062e+000
2.625583e+003,2.773281e+000
2.626547e+003,1.863750e+000
2.627511e+003,6.973438e-001
2.628475e+003,1.258125e+000
2.629439e+003,2.945000e+000
2.630404e+003,2.458594e+000
2.631368e+003,2.103125e-001
2.632332e+003,-2.035625e+000
2.633296e+003,-1.981562e+000
2.634261e+003,-1.084375e-001
2.635225e+003,1.200938e+000
2.636189e+003,1.794062e+000
2.637153e+003,2.741563e+000
2.638118e+003,3.887500e+000
2.639082e+003,4.943281e+000
2.640046e+003,5.472813e+000
2.641010e+003,6.289063e+000
2.641975e+003,8.133594e+000
2.642939e+003,8.685469e+000
2.643903e+003,8.599063e+000
2.644867e+003,8.609375e+000
2.645832e+003,7.730781e+000
2.646796e+003,6.481094e+000
2.647760e+003,7.083594e+000
2.648724e+003,9.416250e+000
2.649688e+003,1.162484e+001
2.650653e+003,1.125937e+001
2.651617e+003,9.807032e+000
2.652581e+003,1.153141e+001
2.653545e+003,1.289094e+001
2.654510e+003,1.135922e+001
2.655474e+003,9.704375e+000
2.656438e+003,9.056562e+000
2.657402e+003,1.140047e+001
2.658367e+003,1.366859e+001
2.659331e+003,1.399781e+001
2.660295e+003,1.385547e+001
2.661259e+003,1.417719e+001
2.662224e+003,1.532578e+001
2.663188e+003,1.476156e+001
2.664152e+003,1.215438e+001
2.665116e+003,9.669687e+000
2.666081e+003,1.042156e+001
2.667045e+003,1.467484e+001
2.668009e+003,1.714797e+001
2.668973e+003,1.718984e+001
2.669938e+003,1.610250e+001
2.670902e+003,1.564016e+001
2.671866e+003,1.648094e+001
2.672830e+003,1.729938e+001
2.673794e+003,1.795078e+001
2.674759e+003,1.787031e+001
2.675723e+003,1.637172e+001
2.676687e+003,1.352563e+001
2.677651e+003,1.347016e+001
2.678615e+003,1.462531e+001
2.679580e+003,1.406719e+001
2.680544e+003,1.501766e+001
2.681508e+003,1.769641e+001
2.682472e+003,1.876563e+001
2.683437e+003,1.871391e+001
2.684401e+003,1.781609e+001
2.685365e+003,1.589578e+001
2.686329e+003,1.442328e+001
2.687294e+003,1.394359e+001
2.688258e+003,1.383781e+001
2.689222e+003,1.375625e+001
2.690186e+003,1.470625e+001
2.691151e+003,1.601203e+001
2.692115e+003,1.697234e+001
2.693079e+003,1.750922e+001
2.694043e+003,1.755531e+001
2.695008e+003,1.545687e+001
2.695972e+003,1.308000e+001
2.696936e+003,1.307219e+001
2.697900e+003,1.509656e+001
2.698865e+003,1.733766e+001
2.699829e+003,1.765969e+001
2.700793e+003,1.623578e+001
2.701757e+003,1.429672e+001
2.702721e+003,1.431391e+001
2.703686e+003,1.541078e+001
2.704650e+003,1.619828e+001
2.705614e+003,1.615828e+001
2.706578e+003,1.588937e+001
2.707542e+003,1.744813e+001
2.708507e+003,1.829688e+001
2.709471e+003,1.604375e+001
2.710435e+003,1.350781e+001
2.711399e+003,1.244172e+001
2.712364e+003,1.386328e+001
2.713328e+003,1.562844e+001
2.714292e+003,1.654109e+001
2.715256e+003,1.735656e+001
2.716221e+003,1.715984e+001
2.717185e+003,1.572469e+001
2.718149e+003,1.448922e+001
2.719113e+003,1.418547e+001
2.720078e+003,1.435734e+001
2.721042e+003,1.373547e+001
2.722006e+003,1.290297e+001
2.722970e+003,1.426984e+001
2.723935e+003,1.608578e+001
2.724899e+003,1.376797e+001
2.725863e+003,1.157828e+001
2.726827e+003,1.205203e+001
2.727792e+003,1.245734e+001
2.728756e+003,1.275375e+001
2.729720e+003,1.381719e+001
2.730684e+003,1.317594e+001
2.731648e+003,1.128906e+001
2.732613e+003,8.564219e+000
2.733577e+003,6.939688e+000
2.734541e+003,8.417812e+000
2.735505e+003,9.981250e+000
2.736469e+003,1.153938e+001
2.737434e+003,1.255703e+001
2.738398e+003,1.276219e+001
2.739362e+003,1.236781e+001
2.740326e+003,1.130453e+001
2.741291e+003,1.099687e+001
2.742255e+003,1.147109e+001
2.743219e+003,1.280469e+001
2.744183e+003,1.358891e+001
2.745148e+003,1.122453e+001
2.746112e+003,1.011797e+001
2.747076e+003,1.085547e+001
2.748040e+003,1.121969e+001
2.749005e+003,1.148141e+001
2.749969e+003,1.081938e+001
2.750933e+003,1.104875e+001
2.751897e+003,1.229359e+001
2.752862e+003,1.244141e+001
2.753826e+003,1.310266e+001
2.754790e+003,1.468109e+001
2.755754e+003,1.548406e+001
2.756719e+003,1.512453e+001
2.757683e+003,1.342969e+001
2.758647e+003,1.098922e+001
2.759611e+003,8.821406e+000
2.760575e+003,1.035219e+001
2.761540e+003,1.220391e+001
2.762504e+003,1.167672e+001
2.763468e+003,1.086266e+001
2.764432e+003,1.071906e+001
2.765396e+003,1.164078e+001
2.766361e+003,1.152578e+001
2.767325e+003,1.010297e+001
2.768289e+003,1.002531e+001
2.769253e+003,1.084734e+001
2.770218e+003,1.141625e+001
2.771182e+003,1.222391e+001
2.772146e+003,1.301297e+001
2.773110e+003,1.280688e+001
2.774075e+003,1.208797e+001
2.775039e+003,1.140531e+001
2.776003e+003,9.300938e+000
2.776967e+003,7.074375e+000
2.777932e+003,6.601563e+000
2.778896e+003,8.024688e+000
2.779860e+003,1.025609e+001
2.780824e+003,9.814688e+000
2.781789e+003,8.010157e+000
2.782753e+003,7.307031e+000
2.783717e+003,6.629531e+000
2.784681e+003,6.338125e+000
2.785646e+003,6.615938e+000
2.786610e+003,6.849844e+000
2.787574e+003,7.799531e+000
2.788538e+003,7.791250e+000
2.789502e+003,7.514688e+000
2.790467e+003,7.572344e+000
2.791431e+003,7.487500e+000
2.792395e+003,6.770312e+000
2.793359e+003,4.475625e+000
2.794323e+003,4.369688e+000
2.795288e+003,6.903906e+000
2.796252e+003,7.915156e+000
2.797216e+003,7.780781e+000
2.798180e+003,7.177031e+000
2.799145e+003,8.134844e+000
2.800109e+003,1.047906e+001
2.801073e+003,1.101516e+001
2.802037e+003,1.017484e+001
2.803002e+003,8.786718e+000
2.803966e+003,6.376094e+000
2.804930e+003,5.090000e+000
2.805894e+003,6.697813e+000
2.806859e+003,6.600625e+000
2.807823e+003,4.906875e+000
2.808787e+003,3.640938e+000
2.809751e+003,4.352031e+000
2.810716e+003,7.145625e+000
2.811680e+003,5.957969e+000
2.812644e+003,3.385313e+000
2.813608e+003,3.569688e+000
2.814573e+003,4.241250e+000
2.815537e+003,4.915781e+000
2.816501e+003,5.004531e+000
2.817465e+003,4.528750e+000
2.818429e+003,4.252188e+000
2.819394e+003,4.822344e+000
2.820358e+003,5.564063e+000
2.821322e+003,6.135313e+000
2.822286e+003,6.141875e+000
2.823250e+003,5.494375e+000
2.824215e+003,4.719219e+000
2.825179e+003,5.317187e+000
2.826143e+003,8.305469e+000
2.827107e+003,8.871407e+000
2.828072e+003,6.751875e+000
2.829036e+003,4.461563e+000
2.830000e+003,4.478594e+000
2.830964e+003,6.229219e+000
2.831929e+003,5.576406e+000
2.832893e+003,3.830625e+000
2.833857e+003,2.595781e+000
2.834821e+003,2.931562e+000
2.835786e+003,3.955781e+000
2.836750e+003,4.055937e+000
2.837714e+003,4.022188e+000
2.838678e+003,4.223906e+000
2.839643e+003,5.543281e+000
2.840607e+003,7.131719e+000
2.841571e+003,7.713125e+000
2.842535e+003,6.140156e+000
2.843500e+003,3.900000e+000
2.844464e+003,3.012656e+000
2.845428e+003,2.982031e+000
2.846392e+003,3.743125e+000
2.847356e+003,5.190156e+000
2.848321e+003,6.017344e+000
2.849285e+003,5.743437e+000
2.850249e+003,4.704688e+000
2.851213e+003,4.168594e+000
2.852177e+003,4.383906e+000
2.853142e+003,5.489219e+000
2.854106e+003,6.488281e+000
2.855070e+003,3.646250e+000
2.856034e+003,3.038750e+000
2.856999e+003,6.406719e+000
2.857963e+003,7.302969e+000
2.858927e+003,6.695000e+000
2.859891e+003,5.344687e+000
2.860856e+003,5.767813e+000
2.861820e+003,7.247031e+000
2.862784e+003,5.667656e+000
2.863748e+003,5.037500e+000
2.864713e+003,6.553594e+000
2.865677e+003,6.904531e+000
2.866641e+003,5.920781e+000
2.867605e+003,4.276406e+000
2.868570e+003,6.580156e+000
2.869534e+003,1.000219e+001
2.870498e+003,7.009844e+000
2.871462e+003,4.476250e+000
2.872427e+003,4.305781e+000
2.873391e+003,4.686406e+000
2.874355e+003,5.543906e+000
2.875319e+003,6.217969e+000
2.876283e+003,8.541094e+000
2.877248e+003,1.064859e+001
2.878212e+003,1.017031e+001
2.879176e+003,8.086562e+000
2.880140e+003,5.622500e+000
2.881104e+003,2.669375e+000
2.882069e+003,1.833750e+000
2.883033e+003,5.224844e+000
2.883997e+003,6.557031e+000
2.884961e+003,7.283125e+000
2.885926e+003,9.592188e+000
2.886890e+003,1.005641e+001
2.887854e+003,8.414219e+000
2.888818e+003,6.912813e+000
2.889783e+003,7.007031e+000
2.890747e+003,8.455625e+000
2.891711e+003,8.817657e+000
2.892675e+003,8.687031e+000
2.893640e+003,7.878750e+000
2.894604e+003,9.086875e+000
2.895568e+003,1.136906e+001
2.896532e+003,9.915781e+000
2.897497e+003,9.777813e+000
2.898461e+003,1.192141e+001
2.899425e+003,8.710625e+000
2.900389e+003,5.571250e+000
2.901354e+003,8.128750e+000
2.902318e+003,9.205781e+000
2.903282e+003,7.745469e+000
2.904246e+003,6.106563e+000
2.905210e+003,5.943125e+000
2.906175e+003,7.884531e+000
2.907139e+003,9.020000e+000
2.908103e+003,8.959219e+000
2.909067e+003,8.482813e+000
2.910031e+003,8.544375e+000
2.910996e+003,8.972187e+000
2.911960e+003,8.995000e+000
2.912924e+003,8.486563e+000
2.913888e+003,7.109063e+000
2.914853e+003,5.810781e+000
2.915817e+003,5.195313e+000
2.916781e+003,5.244531e+000
2.917745e+003,5.866250e+000
2.918710e+003,6.657344e+000
2.919674e+003,8.172344e+000
2.920638e+003,7.632187e+000
2.921602e+003,5.783281e+000
2.922567e+003,5.639062e+000
2.923531e+003,5.449844e+000
2.924495e+003,5.125000e+000
2.925459e+003,5.945156e+000
2.926424e+003,5.706094e+000
2.927388e+003,4.238125e+000
2.928352e+003,3.677500e+000
2.929316e+003,4.147031e+000
2.930281e+003,5.224531e+000
2.931245e+003,5.667031e+000
2.932209e+003,5.432813e+000
2.933173e+003,3.858906e+000
2.934137e+003,3.426250e+000
2.935102e+003,6.189844e+000
2.936066e+003,5.167500e+000
2.937030e+003,4.029687e+000
2.937994e+003,6.707344e+000
2.938958e+003,8.692657e+000
2.939923e+003,8.794063e+000
2.940887e+003,7.642656e+000
2.941851e+003,5.611875e+000
2.942815e+003,4.001094e+000
2.943780e+003,4.350625e+000
2.944744e+003,5.292500e+000
2.945708e+003,5.851875e+000
2.946672e+003,4.960469e+000
2.947637e+003,3.798125e+000
2.948601e+003,3.926094e+000
2.949565e+003,5.650938e+000
2.950529e+003,7.203281e+000
2.951494e+003,6.305625e+000
2.952458e+003,5.003594e+000
2.953422e+003,4.833906e+000
2.954386e+003,5.466562e+000
2.955351e+003,6.495937e+000
2.956315e+003,7.483438e+000
2.957279e+003,7.136250e+000
2.958243e+003,6.660625e+000
2.959208e+003,6.957031e+000
2.960172e+003,8.072344e+000
2.961136e+003,8.710781e+000
2.962100e+003,6.806719e+000
2.963064e+003,6.272500e+000
2.964029e+003,8.040781e+000
2.964993e+003,9.369843e+000
2.965957e+003,9.396563e+000
2.966921e+003,8.005625e+000
2.967885e+003,9.176094e+000
2.968850e+003,1.106625e+001
2.969814e+003,1.021078e+001
2.970778e+003,8.877500e+000
2.971742e+003,8.346094e+000
2.972707e+003,1.041406e+001
2.973671e+003,1.141703e+001
2.974635e+003,9.566406e+000
2.975600e+003,8.352187e+000
2.976564e+003,7.163594e+000
2.977528e+003,6.167344e+000
2.978492e+003,7.156875e+000
2.979457e+003,8.557969e+000
2.980421e+003,7.400625e+000
2.981385e+003,8.628750e+000
2.982349e+003,1.186078e+001
2.983313e+003,9.908750e+000
2.984278e+003,8.059688e+000
2.985242e+003,9.589844e+000
2.986206e+003,8.381875e+000
2.987170e+003,7.395312e+000
2.988135e+003,8.647656e+000
2.989099e+003,8.208125e+000
2.990063e+003,7.045469e+000
2.991027e+003,6.774063e+000
2.991991e+003,7.964063e+000
2.992956e+003,9.230312e+000
2.993920e+003,7.105156e+000
2.994884e+003,5.350469e+000
2.995848e+003,5.412031e+000
2.996813e+003,4.222813e+000
2.997777e+003,4.485938e+000
2.998741e+003,7.484531e+000
2.999705e+003,6.202813e+000
3.000670e+003,3.137813e+000
3.001634e+003,4.310000e+000
3.002598e+003,5.107812e+000
3.003562e+003,4.329844e+000
3.004527e+003,3.927813e+000
3.005491e+003,4.104844e+000
3.006455e+003,4.709531e+000
3.007419e+003,4.895156e+000
3.008384e+003,3.896406e+000
3.009348e+003,2.152656e+000
3.010312e+003,5.985938e-001
3.011276e+003,6.514062e-001
3.012240e+003,3.133281e+000
3.013205e+003,4.561719e+000
3.014169e+003,4.312812e+000
3.015133e+003,2.806562e+000
3.016097e+003,1.145469e+000
3.017062e+003,6.604688e-001
3.018026e+003,3.156563e+000
3.018990e+003,4.920781e+000
3.019954e+003,4.044687e+000
3.020918e+003,2.792656e+000
3.021883e+003,1.798125e+000
3.022847e+003,1.507969e+000
3.023811e+003,9.165625e-001
3.024775e+003,6.739063e-001
3.025740e+003,1.498594e+000
3.026704e+003,2.611562e+000
3.027668e+003,2.918906e+000
3.028632e+003,1.988750e+000
3.029597e+003,1.787656e+000
3.030561e+003,2.597812e+000
3.031525e+003,2.159375e+000
3.032489e+003,1.872813e+000
3.033454e+003,3.152969e+000
3.034418e+003,3.677813e+000
3.035382e+003,3.197969e+000
3.036346e+003,3.378438e+000
3.037311e+003,2.422969e+000
3.038275e+003,8.684375e-001
3.039239e+003,6.221875e-001
3.040203e+003,2.395469e+000
3.041167e+003,5.709219e+000
3.042132e+003,7.612500e+000
3.043096e+003,7.055156e+000
3.044060e+003,4.765781e+000
3.045024e+003,5.367031e+000
3.045989e+003,5.483594e+000
3.046953e+003,5.384375e-001
3.047917e+003,-8.926563e-001
3.048881e+003,-2.826563e-001
3.049845e+003,-1.094062e+000
3.050810e+003,-2.640625e-002
3.051774e+003,2.942031e+000
3.052738e+003,3.246719e+000
3.053702e+003,3.299687e+000
3.054667e+003,4.215000e+000
3.055631e+003,3.306719e+000
3.056595e+003,2.505000e+000
3.057559e+003,2.447031e+000
3.058524e+003,1.721875e+000
3.059488e+003,1.587344e+000
3.060452e+003,2.767500e+000
3.061416e+003,3.720937e+000
3.062381e+003,3.242969e+000
3.063345e+003,-5.514063e-001
3.064309e+003,9.842188e-001
3.065273e+003,6.784844e+000
3.066238e+003,7.167500e+000
3.067202e+003,5.303594e+000
3.068166e+003,3.866094e+000
3.069130e+003,4.394063e+000
3.070094e+003,3.749219e+000
3.071059e+003,3.885938e-001
3.072023e+003,1.815781e+000
3.072987e+003,4.550781e+000
3.073951e+003,2.968906e+000
3.074916e+003,2.467031e+000
3.075880e+003,2.427656e+000
3.076844e+003,1.801094e+000
3.077808e+003,-7.656250e-001
3.078772e+003,-3.334531e+000
3.079737e+003,-8.593750e-003
3.080701e+003,1.672500e+000
3.081665e+003,-7.303125e-001
3.082629e+003,2.555938e+000
3.083594e+003,4.512500e+000
3.084558e+003,1.345625e+000
3.085522e+003,1.092656e+000
3.086486e+003,1.027031e+000
3.087451e+003,-2.770313e+000
3.088415e+003,-1.845000e+000
3.089379e+003,1.426563e+000
3.090343e+003,2.887500e-001
3.091308e+003,-1.698906e+000
3.092272e+003,-3.230937e+000
3.093236e+003,-3.182500e+000
3.094200e+003,-2.804063e+000
3.095165e+003,-3.260781e+000
3.096129e+003,-3.788906e+000
3.097093e+003,-3.756406e+000
3.098057e+003,-2.667969e+000
3.099021e+003,-2.902188e+000
3.099986e+003,-3.732344e+000
3.100950e+003,-3.730156e+000
3.101914e+003,-4.241875e+000
3.102878e+003,-4.765313e+000
3.103843e+003,-3.763750e+000
3.104807e+003,-2.543281e+000
3.105771e+003,-1.604844e+000
3.106735e+003,-1.682969e+000
3.107699e+003,-2.619531e+000
3.108664e+003,-3.597500e+000
3.109628e+003,-3.948281e+000
3.110592e+003,-4.479063e+000
3.111556e+003,-5.500312e+000
3.112521e+003,-6.242813e+000
3.113485e+003,-6.354844e+000
3.114449e+003,-5.889219e+000
3.115413e+003,-4.419219e+000
3.116378e+003,-3.984688e+000
3.117342e+003,-5.565781e+000
3.118306e+003,-6.251563e+000
3.119270e+003,-5.834375e+000
3.120235e+003,-5.319687e+000
3.121199e+003,-5.338125e+000
3.122163e+003,-6.112969e+000
3.123127e+003,-7.383594e+000
3.124092e+003,-8.418906e+000
3.125056e+003,-8.336562e+000
3.126020e+003,-5.997500e+000
3.126984e+003,-4.267500e+000
3.127948e+003,-4.818594e+000
3.128913e+003,-5.662813e+000
3.129877e+003,-6.325625e+000
3.130841e+003,-7.883750e+000
3.131805e+003,-6.484844e+000
3.132770e+003,-4.582500e+000
3.133734e+003,-3.900469e+000
3.134698e+003,-4.305625e+000
3.135662e+003,-5.100937e+000
3.136626e+003,-6.922656e+000
3.137591e+003,-5.797031e+000
3.138555e+003,-3.211094e+000
3.139519e+003,-3.647813e+000
3.140483e+003,-5.292969e+000
3.141448e+003,-6.779219e+000
3.142412e+003,-6.643281e+000
3.143376e+003,-5.463438e+000
3.144340e+003,-4.694375e+000
3.145305e+003,-7.053594e+000
3.146269e+003,-8.331094e+000
3.147233e+003,-6.745156e+000
3.148197e+003,-5.599219e+000
3.149162e+003,-4.662656e+000
3.150126e+003,-3.842344e+000
3.151090e+003,-4.931250e+000
3.152054e+003,-6.250156e+000
3.153019e+003,-4.512656e+000
3.153983e+003,-4.935937e+000
3.154947e+003,-6.194844e+000
3.155911e+003,-5.446250e+000
3.156875e+003,-5.757344e+000
3.157840e+003,-6.837500e+000
3.158804e+003,-6.374531e+000
3.159768e+003,-5.723594e+000
3.160732e+003,-5.227500e+000
3.161697e+003,-5.758750e+000
3.162661e+003,-6.677031e+000
3.163625e+003,-7.504687e+000
3.164589e+003,-7.857812e+000
3.165553e+003,-7.373437e+000
3.166518e+003,-6.896406e+000
3.167482e+003,-8.437969e+000
3.168446e+003,-9.545313e+000
3.169410e+003,-8.624219e+000
3.170375e+003,-7.363906e+000
3.171339e+003,-5.936406e+000
3.172303e+003,-4.810156e+000
3.173267e+003,-6.199375e+000
3.174232e+003,-8.392500e+000
3.175196e+003,-8.178125e+000
3.176160e+003,-6.754063e+000
3.177124e+003,-5.898750e+000
3.178089e+003,-7.319687e+000
3.179053e+003,-6.359687e+000
3.180017e+003,-3.870312e+000
3.180981e+003,-5.905469e+000
3.181946e+003,-7.486563e+000
3.182910e+003,-6.807344e+000
3.183874e+003,-4.801250e+000
3.184838e+003,-4.493750e+000
3.185802e+003,-6.153438e+000
3.186767e+003,-5.253750e+000
3.187731e+003,-3.961719e+000
3.188695e+003,-4.192969e+000
3.189659e+003,-5.225000e+000
3.190624e+003,-6.318906e+000
3.191588e+003,-7.123594e+000
3.192552e+003,-6.128594e+000
3.193516e+003,-4.780938e+000
3.194480e+003,-4.824219e+000
3.195445e+003,-5.915000e+000
3.196409e+003,-7.383125e+000
3.197373e+003,-7.047812e+000
3.198337e+003,-7.423281e+000
3.199302e+003,-7.832344e+000
3.200266e+003,-6.836563e+000
3.201230e+003,-6.889844e+000
3.202194e+003,-7.555781e+000
3.203159e+003,-7.248437e+000
3.204123e+003,-6.139062e+000
3.205087e+003,-4.834531e+000
3.206051e+003,-3.043750e+000
3.207016e+003,-3.246406e+000
3.207980e+003,-4.829531e+000
3.208944e+003,-2.516562e+000
3.209908e+003,-1.507187e+000
3.210873e+003,-3.582500e+000
3.211837e+003,-4.622344e+000
3.212801e+003,-4.528594e+000
3.213765e+003,-4.137031e+000
3.214729e+003,-2.568438e+000
3.215694e+003,-2.566562e+000
3.216658e+003,-5.625000e+000
3.217622e+003,-3.880938e+000
3.218586e+003,-1.098594e+000
3.219551e+003,-4.289688e+000
3.220515e+003,-4.297969e+000
3.221479e+003,-3.457969e+000
3.222443e+003,-6.077344e+000
3.223407e+003,-6.538906e+000
3.224372e+003,-5.658594e+000
3.225336e+003,-8.156719e+000
3.226300e+003,-7.395469e+000
3.227264e+003,-4.648125e+000
3.228229e+003,-4.967656e+000
3.229193e+003,-4.305000e+000
3.230157e+003,-3.045625e+000
3.231121e+003,-4.724062e+000
3.232086e+003,-5.279219e+000
3.233050e+003,-3.908750e+000
3.234014e+003,-3.938750e+000
3.234978e+003,-3.854375e+000
3.235943e+003,-3.043594e+000
3.236907e+003,-2.057812e+000
3.237871e+003,-3.630000e+000
3.238835e+003,-7.765625e+000
3.239800e+003,-8.952500e+000
3.240764e+003,-9.522031e+000
3.241728e+003,-1.054203e+001
3.242692e+003,-1.014656e+001
3.243656e+003,-7.962969e+000
3.244621e+003,-4.925313e+000
3.245585e+003,-4.798281e+000
3.246549e+003,-5.074531e+000
3.247513e+003,-1.723750e+000
3.248478e+003,-5.011406e+000
3.249442e+003,-8.914532e+000
3.250406e+003,-7.029531e+000
3.251370e+003,-5.339375e+000
3.252334e+003,-4.654531e+000
3.253299e+003,-3.150625e+000
3.254263e+003,-4.637813e+000
3.255227e+003,-7.092031e+000
3.256191e+003,-8.371718e+000
3.257156e+003,-7.296563e+000
3.258120e+003,-5.558281e+000
3.259084e+003,-6.812656e+000
3.260048e+003,-8.539219e+000
3.261013e+003,-9.079687e+000
3.261977e+003,-6.262031e+000
3.262941e+003,-5.154062e+000
3.263905e+003,-6.452813e+000
3.264870e+003,-7.180156e+000
3.265834e+003,-7.045469e+000
3.266798e+003,-6.393281e+000
3.267762e+003,-4.983438e+000
3.268727e+003,-3.724219e+000
3.269691e+003,-3.067500e+000
3.270655e+003,-5.000156e+000
3.271619e+003,-6.187031e+000
3.272583e+003,-4.776094e+000
3.273548e+003,-1.642344e+000
3.274512e+003,-7.782813e-001
3.275476e+003,-3.531563e+000
3.276440e+003,-2.886563e+000
3.277405e+003,-1.534219e+000
3.278369e+003,-1.437969e+000
3.279333e+003,-3.740937e+000
3.280297e+003,-3.733125e+000
3.281261e+003,1.310156e+000
3.282226e+003,1.967344e+000
3.283190e+003,4.017187e-001
3.284154e+003,-1.251719e+000
3.285118e+003,-1.197031e+000
3.286083e+003,-3.157812e-001
3.287047e+003,-9.781250e-002
3.288011e+003,-5.312500e-002
3.288975e+003,-3.942187e-001
3.289940e+003,-1.194062e+000
3.290904e+003,-1.801875e+000
3.291868e+003,-1.500625e+000
3.292832e+003,4.390625e-002
3.293797e+003,3.270313e-001
3.294761e+003,-3.398438e-001
3.295725e+003,-1.410000e+000
3.296689e+003,-2.372344e+000
3.297654e+003,-1.774531e+000
3.298618e+003,8.993750e-001
3.299582e+003,-2.984375e-002
3.300546e+003,-2.606719e+000
3.301510e+003,-9.759375e-001
3.302475e+003,1.840625e-001
3.303439e+003,3.798437e-001
3.304403e+003,3.045312e-001
3.305367e+003,-1.611562e+000
3.306332e+003,-3.156875e+000
3.307296e+003,1.936094e+000
3.308260e+003,1.827344e+000
3.309224e+003,-1.973750e+000
3.310189e+003,-1.970625e+000
3.311153e+003,-1.539531e+000
3.312117e+003,-1.780469e+000
3.313081e+003,-2.612187e+000
3.314046e+003,-1.850312e+000
3.315010e+003,-1.875000e-001
3.315974e+003,-1.056875e+000
3.316938e+003,-2.044375e+000
3.317903e+003,-2.419531e+000
3.318867e+003,-2.667500e+000
3.319831e+003,-1.257656e+000
3.320795e+003,1.222969e+000
3.321760e+003,2.132969e+000
3.322724e+003,2.308125e+000
3.323688e+003,1.773750e+000
3.324652e+003,9.046875e-002
3.325616e+003,2.003281e+000
3.326581e+003,6.715625e+000
3.327545e+003,3.747344e+000
3.328509e+003,1.885469e+000
3.329473e+003,3.232500e+000
3.330438e+003,3.213281e+000
3.331402e+003,3.245938e+000
3.332366e+003,3.700781e+000
3.333330e+003,2.246406e+000
3.334294e+003,9.481250e-001
3.335259e+003,8.893750e-001
3.336223e+003,2.525781e+000
3.337187e+003,2.976563e+000
3.338151e+003,1.411719e+000
3.339116e+003,8.718750e-001
3.340080e+003,1.922031e+000
3.341044e+003,3.776094e+000
3.342008e+003,4.094531e+000
3.342973e+003,3.676875e+000
3.343937e+003,3.303125e+000
3.344901e+003,4.046094e+000
3.345865e+003,3.353437e+000
3.346830e+003,1.391094e+000
3.347794e+003,2.238437e+000
3.348758e+003,2.792187e+000
3.349722e+003,1.670938e+000
3.350687e+003,3.545938e+000
3.351651e+003,3.657656e+000
3.352615e+003,9.375000e-003
3.353579e+003,8.025000e-001
3.354543e+003,3.094531e+000
3.355508e+003,4.131250e+000
3.356472e+003,9.042187e-001
3.357436e+003,-4.634375e-001
3.358400e+003,2.459687e+000
3.359365e+003,2.975469e+000
3.360329e+003,1.673281e+000
3.361293e+003,-6.593750e-002
3.362257e+003,-6.250000e-002
3.363221e+003,6.268750e-001
3.364186e+003,1.191875e+000
3.365150e+003,4.612500e-001
3.366114e+003,-7.771875e-001
3.367078e+003,-1.457813e+000
3.368043e+003,-1.354063e+000
3.369007e+003,2.812500e-001
3.369971e+003,2.649062e+000
3.370935e+003,2.169844e+000
3.371900e+003,1.785625e+000
3.372864e+003,2.427344e+000
3.373828e+003,3.319688e+000
3.374792e+003,1.889063e+000
3.375757e+003,-1.248906e+000
3.376721e+003,2.109062e+000
3.377685e+003,4.489687e+000
3.378649e+003,3.016875e+000
3.379614e+003,1.283906e+000
3.380578e+003,1.463438e+000
3.381542e+003,3.673281e+000
3.382506e+003,2.940781e+000
3.383470e+003,2.770781e+000
3.384435e+003,4.427969e+000
3.385399e+003,4.211094e+000
3.386363e+003,3.522344e+000
3.387327e+003,3.262344e+000
3.388292e+003,2.265625e+000
3.389256e+003,2.445156e+000
3.390220e+003,4.454062e+000
3.391184e+003,4.161562e+000
3.392148e+003,3.043125e+000
3.393113e+003,2.071406e+000
3.394077e+003,2.587812e+000
3.395041e+003,4.280938e+000
3.396005e+003,5.603437e+000
3.396970e+003,5.815938e+000
3.397934e+003,4.938281e+000
3.398898e+003,4.443281e+000
3.399862e+003,6.491406e+000
3.400827e+003,7.272812e+000
3.401791e+003,5.588906e+000
3.402755e+003,3.089844e+000
3.403719e+003,2.837188e+000
3.404684e+003,4.541563e+000
3.405648e+003,4.505625e+000
3.406612e+003,4.999688e+000
3.407576e+003,5.902187e+000
3.408541e+003,4.504219e+000
3.409505e+003,4.139688e+000
3.410469e+003,5.227500e+000
3.411433e+003,4.741719e+000
3.412397e+003,4.636641e+000
3.413362e+003,5.132734e+000
3.414326e+003,6.406406e+000
3.415290e+003,6.806250e+000
3.416254e+003,6.179219e+000
3.417219e+003,6.024765e+000
3.418183e+003,4.997578e+000
3.419147e+003,3.985547e+000
3.420111e+003,4.631250e+000
3.421075e+003,5.212500e+000
3.422040e+003,5.441484e+000
3.423004e+003,5.407344e+000
3.423968e+003,6.122969e+000
3.424932e+003,7.189375e+000
3.425897e+003,8.185156e+000
3.426861e+003,8.596406e+000
3.427825e+003,9.212500e+000
3.428789e+003,1.097359e+001
3.429754e+003,8.513125e+000
3.430718e+003,5.716485e+000
3.431682e+003,6.748906e+000
3.432646e+003,7.508672e+000
3.433611e+003,7.459765e+000
3.434575e+003,7.486485e+000
3.435539e+003,9.779610e+000
3.436503e+003,1.093633e+001
3.437468e+003,8.861250e+000
3.438432e+003,8.783125e+000
3.439396e+003,9.205313e+000
3.440360e+003,8.118594e+000
3.441324e+003,8.974688e+000
3.442289e+003,1.102445e+001
3.443253e+003,1.273594e+001
3.444217e+003,1.157422e+001
3.445181e+003,1.044156e+001
3.446146e+003,1.176898e+001
3.447110e+003,1.258320e+001
3.448074e+003,1.198188e+001
3.449038e+003,1.085531e+001
3.450002e+003,1.230656e+001
3.450967e+003,1.394063e+001
3.451931e+003,1.346031e+001
3.452895e+003,1.057453e+001
3.453859e+003,9.308437e+000
3.454824e+003,1.059437e+001
3.455788e+003,1.257844e+001
3.456752e+003,1.347492e+001
3.457716e+003,1.309680e+001
3.458681e+003,1.306297e+001
3.459645e+003,1.286031e+001
3.460609e+003,1.244719e+001
3.461573e+003,1.299531e+001
3.462538e+003,1.245125e+001
3.463502e+003,1.211102e+001
3.464466e+003,1.790148e+001
3.465430e+003,1.903563e+001
3.466395e+003,1.614250e+001
3.467359e+003,1.601328e+001
3.468323e+003,1.678680e+001
3.469287e+003,1.685617e+001
3.470251e+003,1.615586e+001
3.471216e+003,1.443539e+001
3.472180e+003,1.279609e+001
3.473144e+003,1.387828e+001
3.474108e+003,1.455227e+001
3.475073e+003,1.543016e+001
3.476037e+003,1.817414e+001
3.477001e+003,1.577570e+001
3.477965e+003,1.384516e+001
3.478929e+003,1.753024e+001
3.479894e+003,1.641195e+001
3.480858e+003,1.490891e+001
3.481822e+003,1.813859e+001
3.482786e+003,1.917984e+001
3.483751e+003,1.753078e+001
3.484715e+003,1.504219e+001
3.485679e+003,1.661891e+001
3.486643e+003,1.706039e+001
3.487608e+003,1.470562e+001
3.488572e+003,1.506266e+001
3.489536e+003,1.713297e+001
3.490500e+003,1.893906e+001
3.491465e+003,1.852055e+001
3.492429e+003,1.879383e+001
3.493393e+003,2.044266e+001
3.494357e+003,2.112437e+001
3.495322e+003,1.936461e+001
3.496286e+003,1.738203e+001
3.497250e+003,1.834203e+001
3.498214e+003,2.004492e+001
3.499178e+003,2.147078e+001
3.500143e+003,2.161758e+001
