9.998845e+002,2.457789e+000
1.000849e+003,2.933754e+000
1.001813e+003,2.732119e+000
1.002777e+003,2.049141e+000
1.003741e+003,1.587777e+000
1.004706e+003,1.619461e+000
1.005670e+003,1.788218e+000
1.006634e+003,1.871792e+000
1.007598e+003,2.241771e+000
1.008563e+003,2.844893e+000
1.009527e+003,2.708423e+000
1.010491e+003,2.200994e+000
1.011455e+003,2.070125e+000
1.012420e+003,2.442290e+000
1.013384e+003,2.597533e+000
1.014348e+003,2.225225e+000
1.015312e+003,2.043768e+000
1.016276e+003,1.995466e+000
1.017241e+003,2.072301e+000
1.018205e+003,2.185768e+000
1.019169e+003,2.328160e+000
1.020133e+003,2.328497e+000
1.021098e+003,1.731280e+000
1.022062e+003,5.711756e-001
1.023026e+003,7.992681e-001
1.023990e+003,1.461128e+000
1.024955e+003,1.883550e+000
1.025919e+003,2.039702e+000
1.026883e+003,2.001923e+000
1.027847e+003,1.881317e+000
1.028812e+003,1.974196e+000
1.029776e+003,2.123080e+000
1.030740e+003,1.617793e+000
1.031704e+003,1.234525e+000
1.032668e+003,1.625674e+000
1.033633e+003,1.904874e+000
1.034597e+003,1.381708e+000
1.035561e+003,6.152303e-001
1.036525e+003,1.038902e+000
1.037490e+003,1.804957e+000
1.038454e+003,1.836924e+000
1.039418e+003,1.576532e+000
1.040382e+003,1.011835e+000
1.041347e+003,6.810206e-001
1.042311e+003,8.691345e-001
1.043275e+003,1.309914e+000
1.044239e+003,1.643969e+000
1.045203e+003,1.826397e+000
1.046168e+003,1.882926e+000
1.047132e+003,1.660683e+000
1.048096e+003,1.179998e+000
1.049060e+003,7.826207e-001
1.050025e+003,6.795680e-001
1.050989e+003,8.481146e-001
1.051953e+003,1.313485e+000
1.052917e+003,1.720908e+000
1.053882e+003,2.027543e+000
1.054846e+003,1.951907e+000
1.055810e+003,1.579056e+000
1.056774e+003,1.033930e+000
1.057739e+003,5.422984e-001
1.058703e+003,4.301580e-001
1.059667e+003,9.302195e-001
1.060631e+003,1.339765e+000
1.061595e+003,1.574083e+000
1.062560e+003,1.300283e+000
1.063524e+003,8.158437e-001
1.064488e+003,5.314631e-001
1.065452e+003,4.576355e-001
1.066417e+003,2.785716e-001
1.067381e+003,-9.498443e-002
1.068345e+003,-2.418777e-001
1.069309e+003,-1.501404e-001
1.070274e+003,3.841980e-001
1.071238e+003,8.739136e-001
1.072202e+003,8.320796e-001
1.073166e+003,5.053818e-001
1.074130e+003,4.710678e-001
1.075095e+003,4.757782e-001
1.076059e+003,-1.437710e+000
1.077023e+003,-1.318797e+000
1.077987e+003,8.256061e+000
1.078952e+003,1.498021e+001
1.079916e+003,1.177505e+001
1.080880e+003,4.360227e+000
1.081844e+003,1.240955e+000
1.082809e+003,8.530258e-001
1.083773e+003,7.323430e-001
1.084737e+003,5.751821e-001
1.085701e+003,2.757619e-002
1.086666e+003,-1.252380e-001
1.087630e+003,2.451345e-001
1.088594e+003,6.529821e-001
1.089558e+003,6.782694e-001
1.090522e+003,3.441086e-001
1.091487e+003,-5.222865e-001
1.092451e+003,-8.133565e-001
1.093415e+003,-8.714498e-002
1.094379e+003,5.208994e-002
1.095344e+003,-3.297496e-001
1.096308e+003,-5.548604e-001
1.097272e+003,-4.214010e-001
1.098236e+003,-4.693741e-001
1.099201e+003,-1.067706e+000
1.100165e+003,-9.685501e-001
1.101129e+003,-2.401026e-001
1.102093e+003,2.027796e-001
1.103057e+003,2.721944e-001
1.104022e+003,-2.824503e-001
1.104986e+003,-1.033659e+000
1.105950e+003,-1.078601e+000
1.106914e+003,-2.585505e-001
1.107879e+003,-2.763570e-002
1.108843e+003,-9.109446e-002
1.109807e+003,3.671799e-001
1.110771e+003,7.956879e-001
1.111736e+003,7.512380e-001
1.112700e+003,3.672785e-001
1.113664e+003,-5.297801e-002
1.114628e+003,-4.732986e-001
1.115593e+003,-8.713374e-001
1.116557e+003,-1.138085e+000
1.117521e+003,-1.237629e+000
1.118485e+003,-1.081582e+000
1.119449e+003,-5.411662e-001
1.120414e+003,-1.541153e-001
1.121378e+003,-2.310348e-001
1.122342e+003,-3.732661e-001
1.123306e+003,-6.021779e-002
1.124271e+003,1.895299e-001
1.125235e+003,-5.091044e-002
1.126199e+003,-2.329030e-001
1.127163e+003,-3.140365e-001
1.128128e+003,-3.655589e-001
1.129092e+003,-4.259150e-001
1.130056e+003,-5.034663e-001
1.131020e+003,-5.878627e-001
1.131984e+003,-5.225886e-001
1.132949e+003,-9.818166e-002
1.133913e+003,-5.743464e-001
1.134877e+003,-1.393555e+000
1.135841e+003,-1.313027e+000
1.136806e+003,-7.292593e-001
1.137770e+003,-6.882583e-001
1.138734e+003,-1.394833e+000
1.139698e+003,-1.840155e+000
1.140663e+003,-1.935960e+000
1.141627e+003,-1.477099e+000
1.142591e+003,-9.179097e-001
1.143555e+003,-5.839121e-001
1.144520e+003,-4.607514e-001
1.145484e+003,-5.071915e-001
1.146448e+003,-6.762782e-001
1.147412e+003,-8.668081e-001
1.148376e+003,-9.785339e-001
1.149341e+003,-6.267837e-001
1.150305e+003,-4.283940e-001
1.151269e+003,-9.167846e-001
1.152233e+003,-1.065738e+000
1.153198e+003,-5.796656e-001
1.154162e+003,-4.982910e-002
1.155126e+003,-3.070373e-002
1.156090e+003,-2.868184e-001
1.157055e+003,-6.939296e-001
1.158019e+003,-8.611699e-001
1.158983e+003,-6.130936e-001
1.159947e+003,-6.316747e-001
1.160911e+003,-9.067520e-001
1.161876e+003,-1.272949e+000
1.162840e+003,-1.570389e+000
1.163804e+003,-1.674390e+000
1.164769e+003,-1.510711e+000
1.165733e+003,-1.222257e+000
1.166697e+003,-8.607259e-001
1.167661e+003,-9.276225e-001
1.168625e+003,-1.155014e+000
1.169590e+003,-1.312171e+000
1.170554e+003,-1.270750e+000
1.171518e+003,-9.142644e-001
1.172482e+003,-4.491425e-001
1.173447e+003,-7.636231e-001
1.174411e+003,-1.429518e+000
1.175375e+003,-1.101745e+000
1.176339e+003,-7.692057e-001
1.177304e+003,-9.220617e-001
1.178268e+003,-1.327570e+000
1.179232e+003,-1.780698e+000
1.180196e+003,-2.078770e+000
1.181161e+003,-2.013698e+000
1.182125e+003,-1.793864e+000
1.183089e+003,-1.640402e+000
1.184053e+003,-1.390708e+000
1.185017e+003,-9.070674e-001
1.185982e+003,-9.345723e-001
1.186946e+003,-1.354848e+000
1.187910e+003,-1.352914e+000
1.188874e+003,-7.669042e-001
1.189839e+003,-5.708964e-001
1.190803e+003,-1.365003e+000
1.191767e+003,-1.641138e+000
1.192731e+003,-1.340406e+000
1.193696e+003,-1.150323e+000
1.194660e+003,-1.104538e+000
1.195624e+003,-1.272145e+000
1.196588e+003,-1.502577e+000
1.197552e+003,-1.587196e+000
1.198517e+003,-1.476985e+000
1.199481e+003,-1.222439e+000
1.200445e+003,-9.445465e-001
1.201409e+003,-9.056910e-001
1.202374e+003,-1.106071e+000
1.203338e+003,-1.875656e+000
1.204302e+003,-2.243321e+000
1.205266e+003,-1.714726e+000
1.206231e+003,-9.128026e-001
1.207195e+003,-7.036082e-001
1.208159e+003,-8.756561e-001
1.209123e+003,-1.413017e+000
1.210088e+003,-1.586186e+000
1.211052e+003,-1.069055e+000
1.212016e+003,-9.056356e-001
1.212980e+003,-1.145472e+000
1.213944e+003,-1.454506e+000
1.214909e+003,-1.636614e+000
1.215873e+003,-1.714673e+000
1.216837e+003,-1.691988e+000
1.217801e+003,-1.563898e+000
1.218766e+003,-1.352197e+000
1.219730e+003,-1.513563e+000
1.220694e+003,-1.800217e+000
1.221658e+003,-1.961696e+000
1.222623e+003,-1.975718e+000
1.223587e+003,-1.894771e+000
1.224551e+003,-1.687735e+000
1.225515e+003,-1.299446e+000
1.226479e+003,-9.838928e-001
1.227444e+003,-1.772831e+000
1.228408e+003,-2.441396e+000
1.229372e+003,-2.266307e+000
1.230336e+003,-1.928686e+000
1.231301e+003,-1.718231e+000
1.232265e+003,-1.759878e+000
1.233229e+003,-2.023281e+000
1.234193e+003,-2.200321e+000
1.235158e+003,-2.017483e+000
1.236122e+003,-1.568364e+000
1.237086e+003,-5.613210e-001
1.238050e+003,-6.481150e-001
1.239015e+003,-1.392334e+000
1.239979e+003,-1.379141e+000
1.240943e+003,-8.053019e-001
1.241907e+003,-8.828328e-001
1.242871e+003,-1.808089e+000
1.243836e+003,-2.062889e+000
1.244800e+003,-1.545629e+000
1.245764e+003,-1.111299e+000
1.246728e+003,-8.816854e-001
1.247693e+003,-1.136946e+000
1.248657e+003,-1.448963e+000
1.249621e+003,-1.510025e+000
1.250585e+003,-1.381945e+000
1.251550e+003,-1.258026e+000
1.252514e+003,-1.207002e+000
1.253478e+003,-1.325824e+000
1.254442e+003,-1.619700e+000
1.255406e+003,-2.352973e+000
1.256371e+003,-2.669010e+000
1.257335e+003,-2.478997e+000
1.258299e+003,-2.045243e+000
1.259263e+003,-1.667618e+000
1.260228e+003,-1.836361e+000
1.261192e+003,-2.591164e+000
1.262156e+003,-2.661631e+000
1.263120e+003,-1.263513e+000
1.264085e+003,-1.166237e+000
1.265049e+003,-1.793897e+000
1.266013e+003,-2.022994e+000
1.266977e+003,-2.040511e+000
1.267942e+003,-2.090179e+000
1.268906e+003,-2.250340e+000
1.269870e+003,-2.507007e+000
1.270834e+003,-2.686283e+000
1.271798e+003,-2.322313e+000
1.272763e+003,-1.731127e+000
1.273727e+003,-1.226809e+000
1.274691e+003,-1.004537e+000
1.275655e+003,-1.294044e+000
1.276620e+003,-1.520628e+000
1.277584e+003,-1.502993e+000
1.278548e+003,-1.390998e+000
1.279512e+003,-1.283153e+000
1.280477e+003,-1.054167e+000
1.281441e+003,-5.611216e-001
1.282405e+003,-4.861237e-001
1.283369e+003,-9.285319e-001
1.284333e+003,-1.628653e+000
1.285298e+003,-2.274536e+000
1.286262e+003,-2.348763e+000
1.287226e+003,-2.110678e+000
1.288190e+003,-2.085703e+000
1.289155e+003,-2.222446e+000
1.290119e+003,-1.968002e+000
1.291083e+003,-1.574739e+000
1.292047e+003,-2.006305e+000
1.293012e+003,-2.374630e+000
1.293976e+003,-1.946364e+000
1.294940e+003,-1.587292e+000
1.295904e+003,-1.600176e+000
1.296869e+003,-1.538074e+000
1.297833e+003,-1.206730e+000
1.298797e+003,-1.086243e+000
1.299761e+003,-1.545414e+000
1.300725e+003,-1.876211e+000
1.301690e+003,-1.730712e+000
1.302654e+003,-1.338358e+000
1.303618e+003,-8.893270e-001
1.304582e+003,-1.102321e+000
1.305547e+003,-1.582937e+000
1.306511e+003,-1.657663e+000
1.307475e+003,-1.398173e+000
1.308439e+003,-1.341810e+000
1.309404e+003,-1.472823e+000
1.310368e+003,-1.395203e+000
1.311332e+003,-1.290758e+000
1.312296e+003,-1.588982e+000
1.313260e+003,-1.798306e+000
1.314225e+003,-1.582844e+000
1.315189e+003,-1.571898e+000
1.316153e+003,-1.939197e+000
1.317117e+003,-2.145958e+000
1.318082e+003,-1.839831e+000
1.319046e+003,-1.470317e+000
1.320010e+003,-1.343562e+000
1.320974e+003,-1.217181e+000
1.321939e+003,-1.058615e+000
1.322903e+003,-5.067922e-001
1.323867e+003,2.198486e-002
1.324831e+003,-4.029175e-001
1.325796e+003,-1.171261e+000
1.326760e+003,-1.180961e+000
1.327724e+003,-6.635366e-001
1.328688e+003,-8.809845e-001
1.329652e+003,-1.557410e+000
1.330617e+003,-1.801525e+000
1.331581e+003,-1.726556e+000
1.332545e+003,-1.217583e+000
1.333509e+003,-1.013426e+000
1.334474e+003,-1.355775e+000
1.335438e+003,-1.754227e+000
1.336402e+003,-1.926169e+000
1.337366e+003,-1.813835e+000
1.338331e+003,-1.474087e+000
1.339295e+003,-1.338983e+000
1.340259e+003,-1.695477e+000
1.341223e+003,-1.712807e+000
1.342188e+003,-1.420557e+000
1.343152e+003,-1.004563e+000
1.344116e+003,-6.162089e-001
1.345080e+003,-2.897329e-001
1.346044e+003,-2.931783e-001
1.347009e+003,-9.501210e-001
1.347973e+003,-1.587168e+000
1.348937e+003,-8.480072e-001
1.349901e+003,3.478088e-001
1.350866e+003,5.609304e-001
1.351830e+003,2.751455e-001
1.352794e+003,-5.962138e-001
1.353758e+003,-8.778402e-001
1.354723e+003,-4.958293e-001
1.355687e+003,-1.545787e-001
1.356651e+003,-1.026062e-001
1.357615e+003,-1.665517e-001
1.358579e+003,-2.410116e-001
1.359544e+003,-2.856578e-001
1.360508e+003,-2.936361e-001
1.361472e+003,-7.226959e-001
1.362436e+003,-1.160039e+000
1.363401e+003,-6.450124e-001
1.364365e+003,-4.837240e-002
1.365329e+003,-1.788635e-002
1.366293e+003,-2.608520e-001
1.367258e+003,-4.413218e-001
1.368222e+003,-4.070180e-001
1.369186e+003,-1.016164e-001
1.370150e+003,-8.712565e-002
1.371115e+003,-1.106565e+000
1.372079e+003,-1.455977e+000
1.373043e+003,-4.980804e-001
1.374007e+003,-2.492605e-001
1.374971e+003,-5.519359e-001
1.375936e+003,-8.018554e-001
1.376900e+003,-8.589060e-001
1.377864e+003,-7.933960e-001
1.378828e+003,-6.877960e-001
1.379793e+003,-6.784261e-001
1.380757e+003,-7.265188e-001
1.381721e+003,-6.237050e-001
1.382685e+003,-5.613678e-001
1.383650e+003,-9.263601e-001
1.384614e+003,-1.064687e+000
1.385578e+003,-6.528422e-001
1.386542e+003,-3.174744e-001
1.387506e+003,-3.066620e-001
1.388471e+003,-5.109029e-001
1.389435e+003,-7.539500e-001
1.390399e+003,-7.232910e-001
1.391363e+003,-2.431081e-001
1.392328e+003,-3.801229e-001
1.393292e+003,-1.176990e+000
1.394256e+003,-1.059456e+000
1.395220e+003,-7.121338e-001
1.396185e+003,-9.827291e-001
1.397149e+003,-1.308419e+000
1.398113e+003,-1.685598e-001
1.399077e+003,-2.337823e+000
1.400042e+003,-1.169256e+001
1.401006e+003,-1.886523e+001
1.401970e+003,-1.115644e+001
1.402934e+003,-2.040122e+000
1.403898e+003,-1.211152e+000
1.404863e+003,-1.068796e+000
1.405827e+003,-9.948527e-001
1.406791e+003,-1.096011e+000
1.407755e+003,-1.208850e+000
1.408720e+003,-8.896617e-001
1.409684e+003,-4.048462e-001
1.410648e+003,-5.370463e-001
1.411612e+003,-1.116385e+000
1.412577e+003,-6.969594e-001
1.413541e+003,2.127228e-001
1.414505e+003,2.656413e-001
1.415469e+003,-3.741862e-002
1.416433e+003,-5.956665e-001
1.417398e+003,-8.690959e-001
1.418362e+003,-7.243408e-001
1.419326e+003,-6.730723e-001
1.420290e+003,-8.831258e-001
1.421255e+003,-1.141326e+000
1.422219e+003,-1.296361e+000
1.423183e+003,-1.295822e+000
1.424147e+003,-1.102992e+000
1.425112e+003,-8.361094e-001
1.426076e+003,-5.823975e-001
1.427040e+003,-8.286387e-001
1.428004e+003,-1.026974e+000
1.428969e+003,-6.441548e-001
1.429933e+003,-1.336853e-001
1.430897e+003,1.894552e-001
1.431861e+003,1.381042e-001
1.432825e+003,-2.918732e-001
1.433790e+003,-6.926687e-001
1.434754e+003,-6.970703e-001
1.435718e+003,-5.229777e-001
1.436682e+003,-1.118439e-001
1.437647e+003,-8.369140e-002
1.438611e+003,-3.138804e-001
1.439575e+003,-2.801005e-001
1.440539e+003,-2.648621e-001
1.441504e+003,-8.839264e-001
1.442468e+003,-1.529073e+000
1.443432e+003,-1.360029e+000
1.444396e+003,-7.094218e-001
1.445360e+003,-4.673584e-001
1.446325e+003,-4.409617e-001
1.447289e+003,-4.178111e-001
1.448253e+003,-3.413208e-001
1.449217e+003,-1.853231e-002
1.450182e+003,-2.057566e-001
1.451146e+003,-7.762166e-001
1.452110e+003,-8.678823e-001
1.453074e+003,-4.943929e-001
1.454039e+003,1.095357e-001
1.455003e+003,5.393422e-001
1.455967e+003,2.324392e-001
1.456931e+003,-4.960602e-001
1.457896e+003,-2.147319e-002
1.458860e+003,8.363312e-001
1.459824e+003,3.227793e-001
1.460788e+003,-1.463837e-001
1.461752e+003,1.081207e-001
1.462717e+003,3.798950e-001
1.463681e+003,4.868540e-001
1.464645e+003,3.772359e-001
1.465609e+003,1.598368e-001
1.466574e+003,3.109233e-002
1.467538e+003,1.013865e-001
1.468502e+003,4.077677e-001
1.469466e+003,8.880371e-001
1.470431e+003,6.179555e-001
1.471395e+003,3.046977e-002
1.472359e+003,5.859477e-002
1.473323e+003,3.667786e-001
1.474287e+003,9.716085e-001
1.475252e+003,1.406965e+000
1.476216e+003,1.496619e+000
1.477180e+003,1.046496e+000
1.478144e+003,3.195607e-001
1.479109e+003,3.405884e-001
1.480073e+003,1.440870e+000
1.481037e+003,1.757496e+000
1.482001e+003,7.387990e-001
1.482966e+003,6.866537e-001
1.483930e+003,1.158921e+000
1.484894e+003,1.135706e+000
1.485858e+003,1.018742e+000
1.486823e+003,1.104565e+000
1.487787e+003,1.290391e+000
1.488751e+003,1.475401e+000
1.489715e+003,1.427862e+000
1.490679e+003,1.131024e+000
1.491644e+003,1.110780e+000
1.492608e+003,1.713255e+000
1.493572e+003,2.350280e+000
1.494536e+003,2.919408e+000
1.495501e+003,3.074550e+000
1.496465e+003,2.965558e+000
1.497429e+003,2.755227e+000
1.498393e+003,2.717874e+000
1.499358e+003,3.235667e+000
1.500322e+003,3.752913e+000
1.501286e+003,3.852918e+000
1.502250e+003,3.717067e+000
1.503215e+003,3.625472e+000
1.504179e+003,3.684337e+000
1.505143e+003,3.968058e+000
1.506107e+003,3.811323e+000
1.507072e+003,2.512052e+000
1.508036e+003,2.857625e+000
1.509000e+003,4.050340e+000
1.509964e+003,3.993778e+000
1.510928e+003,3.560120e+000
1.511893e+003,3.812035e+000
1.512857e+003,4.330863e+000
1.513821e+003,4.584956e+000
1.514785e+003,4.661303e+000
1.515750e+003,4.706325e+000
1.516714e+003,4.493972e+000
1.517678e+003,3.798875e+000
1.518642e+003,3.488887e+000
1.519607e+003,4.140200e+000
1.520571e+003,4.597144e+000
1.521535e+003,4.901216e+000
1.522499e+003,5.107287e+000
1.523464e+003,5.315949e+000
1.524428e+003,5.744880e+000
1.525392e+003,6.016146e+000
1.526356e+003,5.760331e+000
1.527320e+003,5.526423e+000
1.528285e+003,5.952604e+000
1.529249e+003,6.589032e+000
1.530213e+003,7.010183e+000
1.531177e+003,7.123794e+000
1.532142e+003,6.639260e+000
1.533106e+003,6.722873e+000
1.534070e+003,7.190281e+000
1.535034e+003,7.209772e+000
1.535999e+003,7.135728e+000
1.536963e+003,7.371187e+000
1.537927e+003,7.895990e+000
1.538891e+003,8.641760e+000
1.539855e+003,9.463828e+000
1.540820e+003,1.016990e+001
1.541784e+003,1.069170e+001
1.542748e+003,1.097738e+001
1.543712e+003,1.140192e+001
1.544677e+003,1.231919e+001
1.545641e+003,1.260459e+001
1.546605e+003,1.242841e+001
1.547569e+003,1.314349e+001
1.548534e+003,1.420690e+001
1.549498e+003,1.488124e+001
1.550462e+003,1.550364e+001
1.551426e+003,1.644274e+001
1.552391e+003,1.769267e+001
1.553355e+003,1.910444e+001
1.554319e+003,2.047285e+001
1.555283e+003,2.162245e+001
1.556247e+003,2.266681e+001
1.557212e+003,2.351181e+001
1.558176e+003,2.525017e+001
1.559140e+003,2.784948e+001
1.560104e+003,2.964568e+001
1.561069e+003,3.134855e+001
1.562033e+003,3.362763e+001
1.562997e+003,3.647243e+001
1.563961e+003,3.995553e+001
1.564926e+003,4.350226e+001
1.565890e+003,4.681826e+001
1.566854e+003,5.043880e+001
1.567818e+003,5.489162e+001
1.568782e+003,6.024159e+001
1.569747e+003,6.655634e+001
1.570711e+003,7.355517e+001
1.571675e+003,8.118749e+001
1.572639e+003,8.929427e+001
1.573604e+003,9.827311e+001
1.574568e+003,1.085219e+002
1.575532e+003,1.201195e+002
1.576496e+003,1.329285e+002
1.577461e+003,1.475619e+002
1.578425e+003,1.639641e+002
1.579389e+003,1.805871e+002
1.580353e+003,1.969081e+002
1.581318e+003,2.142670e+002
1.582282e+003,2.331009e+002
1.583246e+003,2.517105e+002
1.584210e+003,2.694936e+002
1.585174e+003,2.825736e+002
1.586139e+003,2.912089e+002
1.587103e+003,2.963768e+002
1.588067e+003,2.969706e+002
1.589031e+003,2.926474e+002
1.589996e+003,2.830172e+002
1.590960e+003,2.686929e+002
1.591924e+003,2.518661e+002
1.592888e+003,2.340832e+002
1.593853e+003,2.154391e+002
1.594817e+003,1.961718e+002
1.595781e+003,1.770851e+002
1.596745e+003,1.586928e+002
1.597709e+003,1.426839e+002
1.598674e+003,1.285125e+002
1.599638e+003,1.153789e+002
1.600602e+003,1.036674e+002
1.601566e+003,9.365755e+001
1.602531e+003,8.500984e+001
1.603495e+003,7.752555e+001
1.604459e+003,7.040068e+001
1.605423e+003,6.359891e+001
1.606388e+003,5.746600e+001
1.607352e+003,5.222542e+001
1.608316e+003,4.811939e+001
1.609280e+003,4.488890e+001
1.610245e+003,4.170583e+001
1.611209e+003,3.837176e+001
1.612173e+003,3.452741e+001
1.613137e+003,3.127999e+001
1.614101e+003,2.959449e+001
1.615066e+003,2.772036e+001
1.616030e+003,2.568384e+001
1.616994e+003,2.403361e+001
1.617958e+003,2.262687e+001
1.618923e+003,2.121320e+001
1.619887e+003,1.979374e+001
1.620851e+003,1.837449e+001
1.621815e+003,1.741929e+001
1.622780e+003,1.719904e+001
1.623744e+003,1.687784e+001
1.624708e+003,1.571817e+001
1.625672e+003,1.440402e+001
1.626636e+003,1.317815e+001
1.627601e+003,1.284008e+001
1.628565e+003,1.333062e+001
1.629529e+003,1.267379e+001
1.630493e+003,1.169541e+001
1.631458e+003,1.138866e+001
1.632422e+003,1.108407e+001
1.633386e+003,1.028951e+001
1.634350e+003,9.276286e+000
1.635315e+003,8.354291e+000
1.636279e+003,8.037624e+000
1.637243e+003,8.275633e+000
1.638207e+003,8.165030e+000
1.639172e+003,7.424416e+000
1.640136e+003,6.661420e+000
1.641100e+003,6.030116e+000
1.642064e+003,5.979178e+000
1.643028e+003,6.057125e+000
1.643993e+003,5.575790e+000
1.644957e+003,4.987525e+000
1.645921e+003,4.267223e+000
1.646885e+003,4.001093e+000
1.647850e+003,4.144570e+000
1.648814e+003,4.196004e+000
1.649778e+003,4.061063e+000
1.650742e+003,3.792982e+000
1.651707e+003,3.582155e+000
1.652671e+003,3.669102e+000
1.653635e+003,3.838264e+000
1.654599e+003,3.639740e+000
1.655563e+003,3.230892e+000
1.656528e+003,2.746079e+000
1.657492e+003,2.565284e+000
1.658456e+003,3.083376e+000
1.659420e+003,3.083332e+000
1.660385e+003,2.750489e+000
1.661349e+003,3.050282e+000
1.662313e+003,3.385213e+000
1.663277e+003,2.949322e+000
1.664242e+003,2.304000e+000
1.665206e+003,1.873517e+000
1.666170e+003,1.833161e+000
1.667134e+003,2.099115e+000
1.668099e+003,2.183455e+000
1.669063e+003,1.909761e+000
1.670027e+003,1.832467e+000
1.670991e+003,2.115856e+000
1.671955e+003,2.260027e+000
1.672920e+003,2.173321e+000
1.673884e+003,1.443490e+000
1.674848e+003,9.691772e-001
1.675812e+003,2.201701e+000
1.676777e+003,2.845159e+000
1.677741e+003,2.064010e+000
1.678705e+003,1.251595e+000
1.679669e+003,8.589579e-001
1.680634e+003,1.481812e+000
1.681598e+003,2.413325e+000
1.682562e+003,2.381790e+000
1.683526e+003,1.599352e+000
1.684490e+003,9.631012e-001
1.685455e+003,8.668223e-001
1.686419e+003,1.593179e+000
1.687383e+003,2.153379e+000
1.688347e+003,1.694043e+000
1.689312e+003,1.037482e+000
1.690276e+003,2.420420e-001
1.691240e+003,3.305318e-001
1.692204e+003,8.865611e-001
1.693169e+003,9.890584e-001
1.694133e+003,8.220866e-001
1.695097e+003,3.331991e-001
1.696061e+003,2.315684e-001
1.697026e+003,8.209869e-001
1.697990e+003,1.236579e+000
1.698954e+003,1.195829e+000
1.699918e+003,1.322175e+000
1.700882e+003,1.705295e+000
1.701847e+003,1.749771e+000
1.702811e+003,1.369319e+000
1.703775e+003,9.710388e-001
1.704739e+003,6.439769e-001
1.705704e+003,5.818003e-001
1.706668e+003,5.922912e-001
1.707632e+003,4.146800e-001
1.708596e+003,5.799866e-001
1.709561e+003,1.193349e+000
1.710525e+003,1.501877e+000
1.711489e+003,1.504250e+000
1.712453e+003,1.167708e+000
1.713417e+003,8.335317e-001
1.714382e+003,8.344991e-001
1.715346e+003,1.027482e+000
1.716310e+003,1.208768e+000
1.717274e+003,1.128584e+000
1.718239e+003,7.778748e-001
1.719203e+003,7.787038e-001
1.720167e+003,1.324426e+000
1.721131e+003,1.549211e+000
1.722096e+003,1.241035e+000
1.723060e+003,2.357961e-001
1.724024e+003,-7.172689e-001
1.724988e+003,3.254791e-001
1.725953e+003,1.249424e+000
1.726917e+003,7.739197e-001
1.727881e+003,5.073618e-001
1.728845e+003,6.683065e-001
1.729809e+003,1.078555e+000
1.730774e+003,1.425450e+000
1.731738e+003,1.199711e+000
1.732702e+003,8.197937e-001
1.733666e+003,9.015849e-001
1.734631e+003,1.216580e+000
1.735595e+003,1.355529e+000
1.736559e+003,1.307065e+000
1.737523e+003,1.152206e+000
1.738488e+003,1.381624e+000
1.739452e+003,2.176012e+000
1.740416e+003,1.981432e+000
1.741380e+003,8.191284e-001
1.742344e+003,3.807577e-003
1.743309e+003,-3.499583e-001
1.744273e+003,1.464569e-001
1.745237e+003,6.588918e-001
1.746201e+003,8.811086e-001
1.747166e+003,9.193329e-001
1.748130e+003,8.744436e-001
1.749094e+003,1.088161e+000
1.750058e+003,1.409276e+000
1.751023e+003,1.502783e+000
1.751987e+003,1.377056e+000
1.752951e+003,1.154068e+000
1.753915e+003,9.946360e-001
1.754880e+003,1.057250e+000
1.755844e+003,1.249352e+000
1.756808e+003,1.481688e+000
1.757772e+003,1.673121e+000
1.758736e+003,1.796476e+000
1.759701e+003,1.677526e+000
1.760665e+003,1.389011e+000
1.761629e+003,1.059659e+000
1.762593e+003,1.062545e+000
1.763558e+003,2.273900e+000
1.764522e+003,2.622812e+000
1.765486e+003,1.404086e+000
1.766450e+003,5.569570e-001
1.767415e+003,3.872671e-001
1.768379e+003,8.293264e-001
1.769343e+003,1.344017e+000
1.770307e+003,1.351323e+000
1.771271e+003,9.069641e-001
1.772236e+003,3.039388e-001
1.773200e+003,-5.415853e-003
1.774164e+003,3.081207e-001
1.775128e+003,7.938100e-001
1.776093e+003,1.181067e+000
1.777057e+003,1.507287e+000
1.778021e+003,1.752460e+000
1.778985e+003,1.431177e+000
1.779950e+003,8.474721e-001
1.780914e+003,6.845978e-001
1.781878e+003,6.268280e-001
1.782842e+003,5.002869e-001
1.783807e+003,3.868591e-001
1.784771e+003,3.001312e-001
1.785735e+003,2.889058e-001
1.786699e+003,3.147329e-001
1.787663e+003,3.925802e-001
1.788628e+003,3.390513e-001
1.789592e+003,-1.715841e-001
1.790556e+003,-5.280049e-001
1.791520e+003,-2.899821e-001
1.792485e+003,1.623728e-001
1.793449e+003,4.684184e-001
1.794413e+003,4.653290e-001
1.795377e+003,1.842183e-001
1.796342e+003,4.835612e-002
1.797306e+003,1.011159e-001
1.798270e+003,2.837728e-001
1.799234e+003,2.738088e-001
1.800198e+003,-6.038564e-001
1.801163e+003,-9.195750e-001
1.802127e+003,6.921000e-001
1.803091e+003,8.191538e-001
1.804055e+003,-1.990214e-001
1.805020e+003,-1.006830e+000
1.805984e+003,-1.258682e+000
1.806948e+003,-3.454702e-001
1.807912e+003,5.038961e-001
1.808877e+003,5.646881e-001
1.809841e+003,2.928233e-001
1.810805e+003,4.514567e-003
1.811769e+003,-2.325043e-001
1.812734e+003,-4.514191e-001
1.813698e+003,-8.537791e-001
1.814662e+003,-1.257167e+000
1.815626e+003,-1.195471e+000
1.816590e+003,-7.201396e-001
1.817555e+003,-5.176697e-002
1.818519e+003,2.090993e-001
1.819483e+003,-4.119548e-001
1.820447e+003,-6.376068e-001
1.821412e+003,-1.019165e-001
1.822376e+003,5.035705e-002
1.823340e+003,-1.399689e-001
1.824304e+003,-8.585093e-001
1.825269e+003,-1.390524e+000
1.826233e+003,-1.200325e+000
1.827197e+003,-9.109212e-001
1.828161e+003,-6.675568e-001
1.829126e+003,-6.709534e-001
1.830090e+003,-7.756348e-001
1.831054e+003,-6.010610e-001
1.832018e+003,-3.593506e-001
1.832983e+003,-4.119263e-001
1.833947e+003,-5.588908e-001
1.834911e+003,-5.618744e-001
1.835875e+003,-4.599192e-001
1.836839e+003,-3.412862e-001
1.837804e+003,-3.617249e-001
1.838768e+003,-5.486725e-001
1.839732e+003,-7.170328e-001
1.840696e+003,-7.863067e-001
1.841661e+003,-6.172130e-001
1.842625e+003,-5.643168e-001
1.843589e+003,-1.174632e+000
1.844553e+003,-1.382698e+000
1.845518e+003,-2.789805e-001
1.846482e+003,-4.156626e-001
1.847446e+003,-1.397431e+000
1.848410e+003,-1.302165e+000
1.849375e+003,-7.403300e-001
1.850339e+003,-6.863709e-002
1.851303e+003,7.187195e-002
1.852267e+003,-7.210928e-001
1.853231e+003,-8.525869e-001
1.854196e+003,-2.216899e-001
1.855160e+003,1.290690e-002
1.856124e+003,-1.262553e-001
1.857088e+003,6.018168e-002
1.858053e+003,2.598144e-001
1.859017e+003,-4.545593e-002
1.859981e+003,-3.358175e-001
1.860945e+003,-1.904256e-001
1.861910e+003,-2.395365e-001
1.862874e+003,-7.136108e-001
1.863838e+003,-8.533580e-001
1.864802e+003,-5.109701e-001
1.865766e+003,-6.496684e-002
1.866731e+003,1.827871e-001
1.867695e+003,-4.127777e-001
1.868659e+003,-9.478689e-001
1.869623e+003,-7.784302e-001
1.870588e+003,-6.445811e-001
1.871552e+003,-6.161458e-001
1.872516e+003,-7.473704e-001
1.873480e+003,-8.179759e-001
1.874445e+003,-3.878713e-001
1.875409e+003,4.779561e-002
1.876373e+003,2.978272e-001
1.877337e+003,-4.871521e-002
1.878302e+003,-8.059784e-001
1.879266e+003,-5.496786e-001
1.880230e+003,3.364095e-001
1.881194e+003,5.101756e-001
1.882158e+003,2.269897e-001
1.883123e+003,2.193675e-001
1.884087e+003,3.807302e-001
1.885051e+003,4.301921e-001
1.886015e+003,8.156433e-002
1.886980e+003,-5.872121e-001
1.887944e+003,-5.594605e-001
1.888908e+003,1.977549e-001
1.889872e+003,2.403615e-001
1.890837e+003,-1.720591e-001
1.891801e+003,-3.443980e-001
1.892765e+003,-3.452830e-001
1.893729e+003,-1.987610e-001
1.894693e+003,-2.723083e-002
1.895658e+003,1.725881e-001
1.896622e+003,9.896851e-002
1.897586e+003,-1.252777e-001
1.898550e+003,-2.876404e-001
1.899515e+003,-3.940053e-001
1.900479e+003,-4.742940e-001
1.901443e+003,-4.088898e-001
1.902407e+003,-2.026815e-001
1.903372e+003,-3.173635e-001
1.904336e+003,-6.390066e-001
1.905300e+003,-8.998128e-001
1.906264e+003,-9.877482e-001
1.907229e+003,-8.253723e-001
1.908193e+003,-5.464956e-001
1.909157e+003,-3.097697e-001
1.910121e+003,-4.058279e-001
1.911085e+003,-7.377167e-001
1.912050e+003,-7.609293e-001
1.913014e+003,-4.139740e-001
1.913978e+003,6.764730e-003
1.914942e+003,-5.025635e-002
1.915907e+003,-1.117404e+000
1.916871e+003,-1.640767e+000
1.917835e+003,-5.317729e-001
1.918799e+003,2.116018e-001
1.919764e+003,-2.984721e-002
1.920728e+003,-3.383087e-001
1.921692e+003,-6.142039e-001
1.922656e+003,-6.373250e-001
1.923620e+003,-5.400431e-001
1.924585e+003,-4.454549e-001
1.925549e+003,-1.815002e-001
1.926513e+003,3.658488e-001
1.927477e+003,3.288361e-001
1.928442e+003,-1.884969e-002
1.929406e+003,-1.866913e-001
1.930370e+003,-1.817251e-001
1.931334e+003,1.772410e-001
1.932299e+003,9.253336e-002
1.933263e+003,-5.619364e-001
1.934227e+003,-7.372904e-001
1.935191e+003,-3.989838e-001
1.936156e+003,2.025564e-001
1.937120e+003,5.726084e-001
1.938084e+003,2.159454e-001
1.939048e+003,-3.213674e-001
1.940012e+003,-5.238495e-001
1.940977e+003,-2.362630e-001
1.941941e+003,3.033935e-001
1.942905e+003,3.847758e-001
1.943869e+003,-1.752624e-002
1.944834e+003,-3.983663e-001
1.945798e+003,-5.303080e-001
1.946762e+003,-2.396820e-001
1.947726e+003,-7.898763e-002
1.948691e+003,-4.161916e-001
1.949655e+003,-7.054799e-001
1.950619e+003,-8.055400e-001
1.951583e+003,-8.420950e-001
1.952547e+003,-7.771413e-001
1.953512e+003,-4.934662e-001
1.954476e+003,-2.710571e-001
1.955440e+003,-3.892334e-001
1.956404e+003,-3.788818e-001
1.957369e+003,-1.338959e-001
1.958333e+003,-1.868835e-001
1.959297e+003,-3.330200e-001
1.960261e+003,-1.424937e-001
1.961226e+003,-5.015055e-003
1.962190e+003,-2.835185e-001
1.963154e+003,-3.302083e-001
1.964118e+003,-7.995809e-002
1.965083e+003,1.594645e-002
1.966047e+003,-9.830221e-002
1.967011e+003,-5.253683e-001
1.967975e+003,-8.299347e-001
1.968939e+003,-6.369721e-001
1.969904e+003,-3.709859e-001
1.970868e+003,-3.068888e-001
1.971832e+003,-6.227509e-001
1.972796e+003,-1.021356e+000
1.973761e+003,-7.687968e-001
1.974725e+003,-4.466654e-001
1.975689e+003,-9.585775e-001
1.976653e+003,-1.239898e+000
1.977618e+003,-5.362742e-001
1.978582e+003,-1.898610e-001
1.979546e+003,-6.050771e-001
1.980510e+003,-5.749705e-001
1.981474e+003,-7.088318e-002
1.982439e+003,3.056437e-002
1.983403e+003,2.792257e-002
1.984367e+003,2.862325e-001
1.985331e+003,3.508535e-001
1.986296e+003,-1.255493e-002
1.987260e+003,-1.917582e-001
1.988224e+003,-1.217662e-001
1.989188e+003,1.055705e-002
1.990153e+003,1.327708e-001
1.991117e+003,1.525645e-001
1.992081e+003,1.709697e-001
1.993045e+003,2.470835e-001
1.994010e+003,2.259226e-001
1.994974e+003,1.124939e-001
1.995938e+003,-3.075968e-002
1.996902e+003,-1.343211e-001
1.997866e+003,-1.095774e-001
1.998831e+003,-1.125763e-001
1.999795e+003,-2.318339e-001
2.000759e+003,-1.369608e-001
2.001723e+003,8.552144e-002
2.002688e+003,9.604289e-002
2.003652e+003,-8.397420e-003
2.004616e+003,-1.340963e-001
2.005580e+003,-1.814768e-001
2.006545e+003,-1.269155e-001
2.007509e+003,-2.262390e-001
2.008473e+003,-4.249288e-001
2.009437e+003,-4.886902e-001
2.010401e+003,-3.461304e-001
2.011366e+003,2.229685e-001
2.012330e+003,3.209269e-001
2.013294e+003,-4.782369e-001
2.014258e+003,-7.565857e-001
2.015223e+003,-2.284078e-001
2.016187e+003,-1.447235e-001
2.017151e+003,-5.323537e-001
2.018115e+003,-6.777802e-001
2.019080e+003,-4.427226e-001
2.020044e+003,5.180969e-002
2.021008e+003,1.328532e-001
2.021972e+003,-3.977081e-001
2.022937e+003,-4.683380e-001
2.023901e+003,-1.708577e-002
2.024865e+003,-5.708313e-002
2.025829e+003,-2.028381e-001
2.026793e+003,1.899465e-001
2.027758e+003,4.693492e-001
2.028722e+003,2.406596e-001
2.029686e+003,7.033386e-002
2.030650e+003,8.447266e-002
2.031615e+003,3.620839e-001
2.032579e+003,5.443756e-001
2.033543e+003,-2.636820e-002
2.034507e+003,-4.591207e-001
2.035472e+003,-1.965719e-001
2.036436e+003,-1.550171e-001
2.037400e+003,-3.645192e-001
2.038364e+003,-3.695689e-001
2.039328e+003,-2.552104e-001
2.040293e+003,-7.117411e-002
2.041257e+003,6.624857e-002
2.042221e+003,2.046356e-001
2.043185e+003,-4.966431e-002
2.044150e+003,-5.446320e-001
2.045114e+003,-8.858703e-001
2.046078e+003,-8.721537e-001
2.047042e+003,2.468872e-002
2.048007e+003,4.366120e-001
2.048971e+003,-1.161245e-001
2.049935e+003,-4.799835e-001
2.050899e+003,-5.092193e-001
2.051864e+003,-2.657806e-001
2.052828e+003,-1.148376e-001
2.053792e+003,-3.685547e-001
2.054756e+003,-9.219533e-001
2.055720e+003,-1.559490e+000
2.056685e+003,-1.177588e+000
2.057649e+003,-2.600383e-001
2.058613e+003,-2.672018e-001
2.059577e+003,-7.382019e-001
2.060542e+003,-9.228434e-001
2.061506e+003,-7.952281e-001
2.062470e+003,-4.963115e-001
2.063434e+003,-1.511139e-001
2.064399e+003,-6.707764e-003
2.065363e+003,-4.530853e-001
2.066327e+003,-1.208205e+000
2.067291e+003,-1.779342e+000
2.068256e+003,-1.758115e+000
2.069220e+003,-1.153644e+000
2.070184e+003,-8.744954e-001
2.071148e+003,-1.078436e+000
2.072113e+003,-1.031821e+000
2.073077e+003,-9.044424e-001
2.074041e+003,-1.228238e+000
2.075005e+003,-1.471035e+000
2.075969e+003,-1.290758e+000
2.076934e+003,-1.447897e+000
2.077898e+003,-1.986995e+000
2.078862e+003,-1.836553e+000
2.079826e+003,-1.253580e+000
2.080791e+003,-1.103725e+000
2.081755e+003,-1.013617e+000
2.082719e+003,-7.295309e-001
2.083683e+003,-9.404379e-001
2.084647e+003,-1.712187e+000
2.085612e+003,-1.599023e+000
2.086576e+003,-1.183515e+000
2.087540e+003,-1.759237e+000
2.088504e+003,-2.063441e+000
2.089469e+003,-1.196380e+000
2.090433e+003,-5.725108e-001
2.091397e+003,-5.047099e-001
2.092361e+003,-1.150577e+000
2.093326e+003,-1.836107e+000
2.094290e+003,-1.355948e+000
2.095254e+003,-9.553396e-001
2.096218e+003,-1.358620e+000
2.097183e+003,-1.472113e+000
2.098147e+003,-1.303169e+000
2.099111e+003,-1.759143e+000
2.100075e+003,-2.223578e+000
2.101040e+003,-1.746088e+000
2.102004e+003,-1.499180e+000
2.102968e+003,-2.157670e+000
2.103932e+003,-2.247919e+000
2.104896e+003,-1.931127e+000
2.105861e+003,-1.714509e+000
2.106825e+003,-1.472009e+000
2.107789e+003,-8.520121e-001
2.108753e+003,-8.389313e-001
2.109718e+003,-1.734518e+000
2.110682e+003,-1.608029e+000
2.111646e+003,-9.846486e-001
2.112610e+003,-1.053807e+000
2.113574e+003,-1.303877e+000
2.114539e+003,-1.468472e+000
2.115503e+003,-1.372642e+000
2.116467e+003,-1.075104e+000
2.117431e+003,-1.256165e+000
2.118396e+003,-1.579928e+000
2.119360e+003,-1.472865e+000
2.120324e+003,-1.323642e+000
2.121288e+003,-1.371155e+000
2.122253e+003,-1.344534e+000
2.123217e+003,-1.332949e+000
2.124181e+003,-2.064296e+000
2.125145e+003,-2.754512e+000
2.126110e+003,-2.297295e+000
2.127074e+003,-1.776487e+000
2.128038e+003,-1.704180e+000
2.129002e+003,-1.921855e+000
2.129967e+003,-2.122840e+000
2.130931e+003,-1.702917e+000
2.131895e+003,-1.222828e+000
2.132859e+003,-1.300605e+000
2.133823e+003,-1.672914e+000
2.134788e+003,-2.080362e+000
2.135752e+003,-2.057691e+000
2.136716e+003,-1.685820e+000
2.137680e+003,-1.205376e+000
2.138645e+003,-8.153605e-001
2.139609e+003,-6.011393e-001
2.140573e+003,-7.753662e-001
2.141537e+003,-1.200998e+000
2.142501e+003,-1.198152e+000
2.143466e+003,-9.715189e-001
2.144430e+003,-1.174644e+000
2.145394e+003,-1.335914e+000
2.146358e+003,-1.074612e+000
2.147323e+003,-1.021030e+000
2.148287e+003,-1.345096e+000
2.149251e+003,-1.745474e+000
2.150215e+003,-2.057204e+000
2.151180e+003,-2.270027e+000
2.152144e+003,-2.104713e+000
2.153108e+003,-1.538737e+000
2.154072e+003,-1.244778e+000
2.155037e+003,-1.352340e+000
2.156001e+003,-1.506955e+000
2.156965e+003,-1.638883e+000
2.157929e+003,-1.788973e+000
2.158894e+003,-1.868517e+000
2.159858e+003,-1.824846e+000
2.160822e+003,-1.711341e+000
2.161786e+003,-1.538106e+000
2.162750e+003,-1.201100e+000
2.163715e+003,-9.336812e-001
2.164679e+003,-9.946086e-001
2.165643e+003,-1.346425e+000
2.166607e+003,-1.753530e+000
2.167572e+003,-1.717509e+000
2.168536e+003,-1.413108e+000
2.169500e+003,-1.363726e+000
2.170464e+003,-1.746862e+000
2.171428e+003,-2.418445e+000
2.172393e+003,-2.468872e+000
2.173357e+003,-1.901616e+000
2.174321e+003,-1.923314e+000
2.175285e+003,-2.271319e+000
2.176250e+003,-2.077306e+000
2.177214e+003,-1.645466e+000
2.178178e+003,-1.352011e+000
2.179142e+003,-1.240628e+000
2.180107e+003,-1.306459e+000
2.181071e+003,-1.571700e+000
2.182035e+003,-1.772993e+000
2.182999e+003,-1.635817e+000
2.183964e+003,-1.629270e+000
2.184928e+003,-1.922191e+000
2.185892e+003,-2.007698e+000
2.186856e+003,-1.964614e+000
2.187821e+003,-2.271972e+000
2.188785e+003,-2.296949e+000
2.189749e+003,-1.583345e+000
2.190713e+003,-1.353753e+000
2.191677e+003,-1.829760e+000
2.192642e+003,-1.808293e+000
2.193606e+003,-1.445344e+000
2.194570e+003,-1.481433e+000
2.195534e+003,-1.528487e+000
2.196499e+003,-1.392327e+000
2.197463e+003,-1.759539e+000
2.198427e+003,-2.398328e+000
2.199391e+003,-2.162671e+000
2.200355e+003,-1.545400e+000
2.201320e+003,-1.471897e+000
2.202284e+003,-1.784532e+000
2.203248e+003,-2.120321e+000
2.204212e+003,-1.767988e+000
2.205177e+003,-1.112690e+000
2.206141e+003,-1.178581e+000
2.207105e+003,-1.406082e+000
2.208069e+003,-1.252544e+000
2.209034e+003,-1.211283e+000
2.209998e+003,-1.445792e+000
2.210962e+003,-1.854156e+000
2.211926e+003,-2.089321e+000
2.212891e+003,-1.758727e+000
2.213855e+003,-1.212088e+000
2.214819e+003,-8.488098e-001
2.215783e+003,-9.625834e-001
2.216748e+003,-1.427139e+000
2.217712e+003,-1.864348e+000
2.218676e+003,-1.978869e+000
2.219640e+003,-1.648978e+000
2.220604e+003,-1.284760e+000
2.221569e+003,-1.160325e+000
2.222533e+003,-1.380786e+000
2.223497e+003,-1.800800e+000
2.224461e+003,-2.152375e+000
2.225426e+003,-2.174172e+000
2.226390e+003,-1.864735e+000
2.227354e+003,-1.716173e+000
2.228318e+003,-1.787504e+000
2.229282e+003,-1.830524e+000
2.230247e+003,-1.808071e+000
2.231211e+003,-1.764606e+000
2.232175e+003,-1.819662e+000
2.233139e+003,-2.033173e+000
2.234104e+003,-2.552860e+000
2.235068e+003,-2.839477e+000
2.236032e+003,-2.196922e+000
2.236996e+003,-1.600373e+000
2.237961e+003,-1.688295e+000
2.238925e+003,-2.050464e+000
2.239889e+003,-2.281670e+000
2.240853e+003,-1.913108e+000
2.241818e+003,-1.605274e+000
2.242782e+003,-1.914179e+000
2.243746e+003,-2.001317e+000
2.244710e+003,-1.669406e+000
2.245675e+003,-1.454373e+000
2.246639e+003,-1.461172e+000
2.247603e+003,-1.650698e+000
2.248567e+003,-1.780951e+000
2.249531e+003,-1.714072e+000
2.250496e+003,-1.447882e+000
2.251460e+003,-1.179987e+000
2.252424e+003,-1.226245e+000
2.253388e+003,-1.316680e+000
2.254353e+003,-1.218851e+000
2.255317e+003,-1.477179e+000
2.256281e+003,-2.029216e+000
2.257245e+003,-2.146265e+000
2.258209e+003,-2.095717e+000
2.259174e+003,-2.520742e+000
2.260138e+003,-2.542690e+000
2.261102e+003,-1.927733e+000
2.262066e+003,-1.756096e+000
2.263031e+003,-1.963364e+000
2.263995e+003,-2.005849e+000
2.264959e+003,-1.967269e+000
2.265923e+003,-1.965578e+000
2.266888e+003,-2.073362e+000
2.267852e+003,-2.146456e+000
2.268816e+003,-1.565392e+000
2.269780e+003,-1.058492e+000
2.270745e+003,-1.690610e+000
2.271709e+003,-1.946219e+000
2.272673e+003,-1.405081e+000
2.273637e+003,-1.436378e+000
2.274602e+003,-1.944667e+000
2.275566e+003,-2.622204e+000
2.276530e+003,-2.939195e+000
2.277494e+003,-2.412040e+000
2.278458e+003,-2.255030e+000
2.279423e+003,-2.503787e+000
2.280387e+003,-2.825278e+000
2.281351e+003,-2.786819e+000
2.282315e+003,-1.550004e+000
2.283280e+003,-1.047272e+000
2.284244e+003,-1.800173e+000
2.285208e+003,-2.339298e+000
2.286172e+003,-2.577961e+000
2.287136e+003,-2.540995e+000
2.288101e+003,-2.314337e+000
2.289065e+003,-1.670498e+000
2.290029e+003,-1.755693e+000
2.290993e+003,-2.417652e+000
2.291958e+003,-2.320814e+000
2.292922e+003,-2.113037e+000
2.293886e+003,-2.418410e+000
2.294850e+003,-2.666137e+000
2.295815e+003,-2.747037e+000
2.296779e+003,-2.685238e+000
2.297743e+003,-2.510367e+000
2.298707e+003,-2.224495e+000
2.299672e+003,-2.120793e+000
2.300636e+003,-2.443507e+000
2.301600e+003,-2.083652e+000
2.302564e+003,-1.265364e+000
2.303529e+003,-1.476891e+000
2.304493e+003,-1.871421e+000
2.305457e+003,-1.691882e+000
2.306421e+003,-1.742196e+000
2.307385e+003,-2.207050e+000
2.308350e+003,-2.390877e+000
2.309314e+003,-2.418632e+000
2.310278e+003,-2.509578e+000
2.311242e+003,-2.576476e+000
2.312207e+003,-2.542075e+000
2.313171e+003,-2.205953e+000
2.314135e+003,-1.906565e+000
2.315099e+003,-2.445951e+000
2.316063e+003,-2.888548e+000
2.317028e+003,-2.597020e+000
2.317992e+003,-2.234543e+000
2.318956e+003,-2.083324e+000
2.319921e+003,-2.253234e+000
2.320885e+003,-2.333171e+000
2.321849e+003,-1.957631e+000
2.322813e+003,-1.507609e+000
2.323778e+003,-1.289901e+000
2.324742e+003,-1.720097e+000
2.325706e+003,-2.025260e+000
2.326670e+003,-1.361272e+000
2.327635e+003,-1.014122e+000
2.328599e+003,-1.481763e+000
2.329563e+003,-2.152201e+000
2.330527e+003,-2.682636e+000
2.331491e+003,-2.929848e+000
2.332456e+003,-2.816066e+000
2.333420e+003,-2.418997e+000
2.334384e+003,-2.109423e+000
2.335348e+003,-1.730925e+000
2.336313e+003,-5.452118e-001
2.337277e+003,-4.510193e-002
2.338241e+003,-9.825450e-001
2.339205e+003,-1.744563e+000
2.340169e+003,-1.955391e+000
2.341134e+003,-1.899433e+000
2.342098e+003,-1.787593e+000
2.343062e+003,-1.609032e+000
2.344026e+003,-2.045454e+000
2.344991e+003,-2.815142e+000
2.345955e+003,-2.080770e+000
2.346919e+003,-1.183998e+000
2.347883e+003,-1.992497e+000
2.348848e+003,-2.483421e+000
2.349812e+003,-2.065194e+000
2.350776e+003,-1.577633e+000
2.351740e+003,-1.375787e+000
2.352705e+003,-2.419392e+000
2.353669e+003,-2.975522e+000
2.354633e+003,-1.683633e+000
2.355597e+003,-1.646438e+000
2.356562e+003,-2.438176e+000
2.357526e+003,-2.024807e+000
2.358490e+003,-1.417156e+000
2.359454e+003,-1.299480e+000
2.360418e+003,-1.790581e+000
2.361383e+003,-2.814362e+000
2.362347e+003,-2.327759e+000
2.363311e+003,-1.423998e+000
2.364275e+003,-1.494891e+000
2.365240e+003,-1.905695e+000
2.366204e+003,-2.345477e+000
2.367168e+003,-2.242212e+000
2.368132e+003,-1.796965e+000
2.369096e+003,-1.566491e+000
2.370061e+003,-1.595378e+000
2.371025e+003,-1.856322e+000
2.371989e+003,-2.178233e+000
2.372953e+003,-2.401077e+000
2.373918e+003,-2.295380e+000
2.374882e+003,-1.957363e+000
2.375846e+003,-1.681749e+000
2.376810e+003,-2.229398e+000
2.377775e+003,-3.010258e+000
2.378739e+003,-2.582572e+000
2.379703e+003,-1.869257e+000
2.380667e+003,-1.732724e+000
2.381632e+003,-1.668992e+000
2.382596e+003,-1.600929e+000
2.383560e+003,-1.860285e+000
2.384524e+003,-2.057997e+000
2.385489e+003,-1.898006e+000
2.386453e+003,-1.491100e+000
2.387417e+003,-1.284224e+000
2.388381e+003,-2.518795e+000
2.389345e+003,-3.431013e+000
2.390310e+003,-1.892077e+000
2.391274e+003,-1.122639e+000
2.392238e+003,-1.650298e+000
2.393202e+003,-2.541754e+000
2.394167e+003,-3.058153e+000
2.395131e+003,-2.200550e+000
2.396095e+003,-1.817144e+000
2.397059e+003,-2.533690e+000
2.398023e+003,-2.320572e+000
2.398988e+003,-1.612862e+000
2.399952e+003,-1.040259e+000
2.400916e+003,-9.020081e-001
2.401880e+003,-1.454524e+000
2.402845e+003,-1.727716e+000
2.403809e+003,-1.694811e+000
2.404773e+003,-1.455582e+000
2.405737e+003,-1.298311e+000
2.406702e+003,-1.416372e+000
2.407666e+003,-1.499128e+000
2.408630e+003,-1.474446e+000
2.409594e+003,-1.398602e+000
2.410559e+003,-1.506575e+000
2.411523e+003,-1.923061e+000
2.412487e+003,-2.177692e+000
2.413451e+003,-1.966406e+000
2.414416e+003,-1.017238e+000
2.415380e+003,-2.603098e-001
2.416344e+003,-5.116984e-001
2.417308e+003,-6.649180e-001
2.418272e+003,-4.836395e-001
2.419237e+003,-6.177439e-001
2.420201e+003,-8.941488e-001
2.421165e+003,-1.031666e+000
2.422129e+003,-9.498606e-001
2.423094e+003,-8.276123e-001
2.424058e+003,-1.335237e+000
2.425022e+003,-1.511816e+000
2.425986e+003,-1.417592e-001
2.426950e+003,5.869568e-001
2.427915e+003,2.204732e-001
2.428879e+003,-9.877248e-001
2.429843e+003,-1.701997e+000
2.430807e+003,-2.009552e-001
2.431772e+003,9.334330e-001
2.432736e+003,1.059929e+000
2.433700e+003,5.243988e-001
2.434664e+003,1.389781e-001
2.435629e+003,1.254253e+000
2.436593e+003,2.168229e+000
2.437557e+003,2.241509e+000
2.438521e+003,2.391000e+000
2.439486e+003,2.605823e+000
2.440450e+003,2.776586e+000
2.441414e+003,3.355151e+000
2.442378e+003,4.524122e+000
2.443343e+003,5.177022e+000
2.444307e+003,5.330064e+000
2.445271e+003,5.576414e+000
2.446235e+003,5.737158e+000
2.447199e+003,5.712473e+000
2.448164e+003,5.569601e+000
2.449128e+003,5.492826e+000
2.450092e+003,5.750318e+000
2.451056e+003,6.266457e+000
2.452021e+003,6.822888e+000
2.452985e+003,7.177736e+000
2.453949e+003,7.132243e+000
2.454913e+003,6.201737e+000
2.455877e+003,5.833158e+000
2.456842e+003,6.586000e+000
2.457806e+003,6.784440e+000
2.458770e+003,6.505033e+000
2.459734e+003,6.460858e+000
2.460699e+003,6.684332e+000
2.461663e+003,7.210885e+000
2.462627e+003,7.546814e+000
2.463591e+003,7.534050e+000
2.464556e+003,6.484407e+000
2.465520e+003,5.764752e+000
2.466484e+003,6.363360e+000
2.467448e+003,6.659247e+000
2.468413e+003,6.508698e+000
2.469377e+003,5.856225e+000
2.470341e+003,5.129561e+000
2.471305e+003,4.669755e+000
2.472270e+003,4.580284e+000
2.473234e+003,4.846462e+000
2.474198e+003,5.173666e+000
2.475162e+003,5.602950e+000
2.476126e+003,6.041838e+000
2.477091e+003,5.962079e+000
2.478055e+003,5.339111e+000
2.479019e+003,4.503886e+000
2.479983e+003,4.311704e+000
2.480948e+003,5.085321e+000
2.481912e+003,5.179539e+000
2.482876e+003,4.583061e+000
2.483840e+003,4.455338e+000
2.484804e+003,4.299821e+000
2.485769e+003,3.702966e+000
2.486733e+003,3.315168e+000
2.487697e+003,3.114998e+000
2.488661e+003,2.520608e+000
2.489626e+003,2.190096e+000
2.490590e+003,2.922980e+000
2.491554e+003,3.002616e+000
2.492518e+003,2.433696e+000
2.493483e+003,1.768364e+000
2.494447e+003,1.353830e+000
2.495411e+003,1.451013e+000
2.496375e+003,1.788695e+000
2.497340e+003,2.174500e+000
2.498304e+003,1.698901e+000
2.499268e+003,1.100297e+000
2.500232e+003,1.066930e+000
2.501197e+003,1.253981e+000
2.502161e+003,1.540773e+000
2.503125e+003,1.841875e+000
2.504089e+003,1.639742e+000
2.505053e+003,7.903605e-001
2.506018e+003,5.445882e-001
2.506982e+003,9.422190e-001
2.507946e+003,1.157562e+000
2.508910e+003,1.490853e+000
2.509875e+003,2.078765e+000
2.510839e+003,2.147999e+000
2.511803e+003,1.639105e+000
2.512767e+003,5.634664e-001
2.513731e+003,-2.599477e-001
2.514696e+003,-4.608836e-001
2.515660e+003,1.270854e-001
2.516624e+003,9.267629e-001
2.517588e+003,4.582377e-001
2.518553e+003,-1.139323e-004
2.519517e+003,3.239227e-001
2.520481e+003,2.503571e-001
2.521445e+003,-5.234782e-002
2.522410e+003,1.904999e-001
2.523374e+003,4.731374e-001
2.524338e+003,4.767792e-001
2.525302e+003,5.972992e-001
2.526267e+003,6.817179e-001
2.527231e+003,1.968496e-001
2.528195e+003,1.177877e-001
2.529159e+003,8.109131e-001
2.530124e+003,9.339437e-001
2.531088e+003,6.342509e-001
2.532052e+003,7.328613e-001
2.533016e+003,5.660940e-001
2.533980e+003,-2.217102e-002
2.534945e+003,-2.760447e-001
2.535909e+003,-8.248189e-002
2.536873e+003,8.212188e-001
2.537837e+003,1.017919e+000
2.538802e+003,1.823608e-001
2.539766e+003,-8.903351e-001
2.540730e+003,-1.412769e+000
2.541694e+003,1.293599e-001
2.542658e+003,1.117043e+000
2.543623e+003,8.015218e-001
2.544587e+003,6.746623e-002
2.545551e+003,-3.233144e-001
2.546515e+003,7.235545e-001
2.547480e+003,1.079969e+000
2.548444e+003,1.074148e-001
2.549408e+003,-4.711334e-001
2.550372e+003,-6.679992e-002
2.551337e+003,1.272770e+000
2.552301e+003,1.076904e+000
2.553265e+003,-5.552877e-001
2.554229e+003,-8.972870e-001
2.555194e+003,-6.957906e-002
2.556158e+003,1.119110e+000
2.557122e+003,8.758932e-001
2.558086e+003,-2.339549e-001
2.559051e+003,-1.849569e-002
2.560015e+003,6.268240e-001
2.560979e+003,1.027659e+000
2.561943e+003,8.960876e-001
2.562907e+003,4.920929e-001
2.563872e+003,8.730866e-001
2.564836e+003,1.236518e+000
2.565800e+003,1.104548e+000
2.566764e+003,9.528178e-001
2.567729e+003,7.931203e-001
2.568693e+003,5.322846e-001
2.569657e+003,5.850393e-001
2.570621e+003,1.128732e+000
2.571585e+003,1.433514e+000
2.572550e+003,1.440290e+000
2.573514e+003,1.425491e+000
2.574478e+003,1.257789e+000
2.575442e+003,1.001801e+000
2.576407e+003,1.112198e+000
2.577371e+003,1.330550e+000
2.578335e+003,1.165958e+000
2.579299e+003,1.129950e+000
2.580264e+003,1.393486e+000
2.581228e+003,1.962749e+000
2.582192e+003,2.429273e+000
2.583156e+003,2.435932e+000
2.584121e+003,2.028015e+000
2.585085e+003,1.287395e+000
2.586049e+003,1.540771e+000
2.587013e+003,2.025053e+000
2.587978e+003,1.937119e+000
2.588942e+003,1.694444e+000
2.589906e+003,1.644291e+000
2.590870e+003,2.579303e+000
2.591834e+003,3.352652e+000
2.592799e+003,2.990045e+000
2.593763e+003,2.873924e+000
2.594727e+003,3.149433e+000
2.595691e+003,2.994390e+000
2.596656e+003,2.972558e+000
2.597620e+003,3.394727e+000
2.598584e+003,3.667852e+000
2.599548e+003,3.799846e+000
2.600512e+003,3.982048e+000
2.601477e+003,4.304024e+000
2.602441e+003,4.858527e+000
2.603405e+003,4.349526e+000
2.604369e+003,3.621009e+000
2.605334e+003,3.858319e+000
2.606298e+003,4.513102e+000
2.607262e+003,5.373090e+000
2.608226e+003,5.550167e+000
2.609191e+003,5.403322e+000
2.610155e+003,5.543868e+000
2.611119e+003,5.775743e+000
2.612083e+003,5.995457e+000
2.613048e+003,6.113297e+000
2.614012e+003,6.444249e+000
2.614976e+003,7.174562e+000
2.615940e+003,7.970622e+000
2.616905e+003,8.426212e+000
2.617869e+003,7.908604e+000
2.618833e+003,7.402063e+000
2.619797e+003,7.361232e+000
2.620761e+003,8.383040e+000
2.621726e+003,9.783850e+000
2.622690e+003,1.036314e+001
2.623654e+003,1.022597e+001
2.624618e+003,9.310525e+000
2.625583e+003,1.014936e+001
2.626547e+003,1.147145e+001
2.627511e+003,1.089255e+001
2.628475e+003,1.058982e+001
2.629439e+003,1.136927e+001
2.630404e+003,1.217886e+001
2.631368e+003,1.280475e+001
2.632332e+003,1.326868e+001
2.633296e+003,1.373462e+001
2.634261e+003,1.423082e+001
2.635225e+003,1.468054e+001
2.636189e+003,1.511031e+001
2.637153e+003,1.560781e+001
2.638118e+003,1.524307e+001
2.639082e+003,1.463694e+001
2.640046e+003,1.549433e+001
2.641010e+003,1.652406e+001
2.641975e+003,1.723256e+001
2.642939e+003,1.798329e+001
2.643903e+003,1.876263e+001
2.644867e+003,1.949696e+001
2.645832e+003,2.031488e+001
2.646796e+003,2.115566e+001
2.647760e+003,2.151569e+001
2.648724e+003,2.178061e+001
2.649688e+003,2.248771e+001
2.650653e+003,2.354836e+001
2.651617e+003,2.473663e+001
2.652581e+003,2.584542e+001
2.653545e+003,2.671003e+001
2.654510e+003,2.720026e+001
2.655474e+003,2.810401e+001
2.656438e+003,2.922729e+001
2.657402e+003,2.989352e+001
2.658367e+003,3.067303e+001
2.659331e+003,3.176411e+001
2.660295e+003,3.334414e+001
2.661259e+003,3.520858e+001
2.662224e+003,3.691528e+001
2.663188e+003,3.845057e+001
2.664152e+003,3.991219e+001
2.665116e+003,4.162537e+001
2.666081e+003,4.329787e+001
2.667045e+003,4.461938e+001
2.668009e+003,4.573186e+001
2.668973e+003,4.719493e+001
2.669938e+003,5.014952e+001
2.670902e+003,5.280251e+001
2.671866e+003,5.411568e+001
2.672830e+003,5.590754e+001
2.673794e+003,5.814824e+001
2.674759e+003,6.047320e+001
2.675723e+003,6.345015e+001
2.676687e+003,6.719177e+001
2.677651e+003,6.973605e+001
2.678615e+003,7.201326e+001
2.679580e+003,7.539147e+001
2.680544e+003,7.869624e+001
2.681508e+003,8.155859e+001
2.682472e+003,8.420379e+001
2.683437e+003,8.702215e+001
2.684401e+003,9.015465e+001
2.685365e+003,9.343662e+001
2.686329e+003,9.647364e+001
2.687294e+003,9.826672e+001
2.688258e+003,1.007377e+002
2.689222e+003,1.047708e+002
2.690186e+003,1.074800e+002
2.691151e+003,1.097066e+002
2.692115e+003,1.125124e+002
2.693079e+003,1.153859e+002
2.694043e+003,1.179985e+002
2.695008e+003,1.197781e+002
2.695972e+003,1.216683e+002
2.696936e+003,1.242702e+002
2.697900e+003,1.256932e+002
2.698865e+003,1.266608e+002
2.699829e+003,1.298355e+002
2.700793e+003,1.313950e+002
2.701757e+003,1.302134e+002
2.702721e+003,1.291816e+002
2.703686e+003,1.288262e+002
2.704650e+003,1.296161e+002
2.705614e+003,1.296892e+002
2.706578e+003,1.286706e+002
2.707542e+003,1.264971e+002
2.708507e+003,1.250310e+002
2.709471e+003,1.254761e+002
2.710435e+003,1.246265e+002
2.711399e+003,1.228578e+002
2.712364e+003,1.225726e+002
2.713328e+003,1.223300e+002
2.714292e+003,1.216142e+002
2.715256e+003,1.221120e+002
2.716221e+003,1.228105e+002
2.717185e+003,1.222631e+002
2.718149e+003,1.221097e+002
2.719113e+003,1.227266e+002
2.720078e+003,1.242179e+002
2.721042e+003,1.249244e+002
2.722006e+003,1.238969e+002
2.722970e+003,1.244951e+002
2.723935e+003,1.262326e+002
2.724899e+003,1.261751e+002
2.725863e+003,1.252835e+002
2.726827e+003,1.243162e+002
2.727792e+003,1.231601e+002
2.728756e+003,1.221177e+002
2.729720e+003,1.215003e+002
2.730684e+003,1.200818e+002
2.731648e+003,1.177825e+002
2.732613e+003,1.147360e+002
2.733577e+003,1.119579e+002
2.734541e+003,1.102098e+002
2.735505e+003,1.073311e+002
2.736469e+003,1.035803e+002
2.737434e+003,9.975159e+001
2.738398e+003,9.667050e+001
2.739362e+003,9.441983e+001
2.740326e+003,9.217637e+001
2.741291e+003,8.908503e+001
2.742255e+003,8.497623e+001
2.743219e+003,8.277000e+001
2.744183e+003,8.134263e+001
2.745148e+003,7.736169e+001
2.746112e+003,7.334221e+001
2.747076e+003,7.036781e+001
2.748040e+003,6.807313e+001
2.749005e+003,6.562779e+001
2.749969e+003,6.203695e+001
2.750933e+003,5.920203e+001
2.751897e+003,5.729537e+001
2.752862e+003,5.448293e+001
2.753826e+003,5.161204e+001
2.754790e+003,4.928185e+001
2.755754e+003,4.654524e+001
2.756719e+003,4.363403e+001
2.757683e+003,4.108982e+001
2.758647e+003,3.926061e+001
2.759611e+003,3.788924e+001
2.760575e+003,3.528524e+001
2.761540e+003,3.276525e+001
2.762504e+003,3.149296e+001
2.763468e+003,3.001984e+001
2.764432e+003,2.812865e+001
2.765396e+003,2.592740e+001
2.766361e+003,2.418036e+001
2.767325e+003,2.311191e+001
2.768289e+003,2.171185e+001
2.769253e+003,2.030158e+001
2.770218e+003,1.939409e+001
2.771182e+003,1.798144e+001
2.772146e+003,1.639074e+001
2.773110e+003,1.606711e+001
2.774075e+003,1.598768e+001
2.775039e+003,1.584072e+001
2.776003e+003,1.387059e+001
2.776967e+003,1.157765e+001
2.777932e+003,1.134198e+001
2.778896e+003,1.167772e+001
2.779860e+003,1.170246e+001
2.780824e+003,1.076211e+001
2.781789e+003,9.974764e+000
2.782753e+003,1.008736e+001
2.783717e+003,9.864563e+000
2.784681e+003,9.208291e+000
2.785646e+003,8.368467e+000
2.786610e+003,7.555367e+000
2.787574e+003,6.911951e+000
2.788538e+003,7.354041e+000
2.789502e+003,7.831413e+000
2.790467e+003,7.484759e+000
2.791431e+003,6.368628e+000
2.792395e+003,5.331811e+000
2.793359e+003,6.155792e+000
2.794323e+003,6.224475e+000
2.795288e+003,4.917377e+000
2.796252e+003,4.964121e+000
2.797216e+003,5.671379e+000
2.798180e+003,6.198049e+000
2.799145e+003,5.197770e+000
2.800109e+003,3.535110e+000
2.801073e+003,3.928442e+000
2.802037e+003,4.520101e+000
2.803002e+003,4.519334e+000
2.803966e+003,4.091099e+000
2.804930e+003,3.665452e+000
2.805894e+003,3.772789e+000
2.806859e+003,4.033862e+000
2.807823e+003,4.127718e+000
2.808787e+003,3.881543e+000
2.809751e+003,3.104400e+000
2.810716e+003,1.921772e+000
2.811680e+003,2.124297e+000
2.812644e+003,2.701296e+000
2.813608e+003,2.295564e+000
2.814573e+003,1.741833e+000
2.815537e+003,1.513495e+000
2.816501e+003,2.781987e+000
2.817465e+003,2.872035e+000
2.818429e+003,9.134877e-001
2.819394e+003,1.153194e+000
2.820358e+003,2.468562e+000
2.821322e+003,2.430990e+000
2.822286e+003,2.071597e+000
2.823250e+003,1.859644e+000
2.824215e+003,2.007028e+000
2.825179e+003,1.971015e+000
2.826143e+003,1.431731e+000
2.827107e+003,1.680914e+000
2.828072e+003,1.976587e+000
2.829036e+003,1.155168e+000
2.830000e+003,7.162445e-001
2.830964e+003,9.940979e-001
2.831929e+003,1.367256e+000
2.832893e+003,1.169595e+000
2.833857e+003,3.514526e-001
2.834821e+003,3.527771e-001
2.835786e+003,8.574636e-001
2.836750e+003,1.447756e+000
2.837714e+003,1.208021e+000
2.838678e+003,2.550964e-001
2.839643e+003,3.375672e-001
2.840607e+003,7.372630e-001
2.841571e+003,8.478546e-001
2.842535e+003,6.995229e-001
2.843500e+003,3.587931e-001
2.844464e+003,-8.513692e-002
2.845428e+003,1.606628e-001
2.846392e+003,8.126465e-001
2.847356e+003,8.257263e-001
2.848321e+003,3.391144e-001
2.849285e+003,-6.949056e-001
2.850249e+003,-4.032267e-001
2.851213e+003,1.222056e-001
2.852177e+003,-6.323192e-001
2.853142e+003,-1.091419e+000
2.854106e+003,-7.587718e-001
2.855070e+003,1.599630e-001
2.856034e+003,4.252116e-001
2.856999e+003,-2.809011e-001
2.857963e+003,-3.914103e-001
2.858927e+003,-2.488576e-001
2.859891e+003,-5.833608e-001
2.860856e+003,-7.895671e-001
2.861820e+003,-8.357351e-001
2.862784e+003,-8.670889e-001
2.863748e+003,-8.400736e-001
2.864713e+003,-6.152099e-001
2.865677e+003,5.243368e-001
2.866641e+003,1.097194e+000
2.867605e+003,-2.153707e-001
2.868570e+003,-1.240629e+000
2.869534e+003,-1.248440e+000
2.870498e+003,4.651296e-001
2.871462e+003,1.195539e+000
2.872427e+003,3.902588e-002
2.873391e+003,-8.772013e-001
2.874355e+003,-1.136528e+000
2.875319e+003,-5.887624e-001
2.876283e+003,-5.844411e-001
2.877248e+003,-1.029369e+000
2.878212e+003,-1.107629e+000
2.879176e+003,-1.182632e+000
2.880140e+003,-1.269845e+000
2.881104e+003,-5.307648e-001
2.882069e+003,-2.107717e-001
2.883033e+003,-1.382486e+000
2.883997e+003,-1.258824e+000
2.884961e+003,-6.222880e-001
2.885926e+003,-1.222122e+000
2.886890e+003,-1.954633e+000
2.887854e+003,-2.093743e+000
2.888818e+003,-9.747864e-001
2.889783e+003,-1.770599e-001
2.890747e+003,-5.259817e-001
2.891711e+003,-1.142775e+000
2.892675e+003,-1.372295e+000
2.893640e+003,-3.880778e-001
2.894604e+003,-5.824850e-001
2.895568e+003,-1.770840e+000
2.896532e+003,-1.484164e+000
2.897497e+003,-1.092965e+000
2.898461e+003,-1.277205e+000
2.899425e+003,-1.146001e+000
2.900389e+003,-8.333008e-001
2.901354e+003,-6.265625e-001
2.902318e+003,-1.148949e+000
2.903282e+003,-1.801314e+000
2.904246e+003,-9.451528e-001
2.905210e+003,-1.055933e+000
2.906175e+003,-2.592794e+000
2.907139e+003,-2.415890e+000
2.908103e+003,-1.464010e+000
2.909067e+003,-9.758484e-001
2.910031e+003,-1.479080e+000
2.910996e+003,-2.129245e+000
2.911960e+003,-1.777508e+000
2.912924e+003,-1.171148e+000
2.913888e+003,-7.624756e-001
2.914853e+003,-1.405776e+000
2.915817e+003,-1.656959e+000
2.916781e+003,-9.224446e-001
2.917745e+003,-4.348226e-001
2.918710e+003,-6.984985e-001
2.919674e+003,-1.738567e+000
2.920638e+003,-1.850015e+000
2.921602e+003,-1.341764e+000
2.922567e+003,-1.678137e+000
2.923531e+003,-1.824241e+000
2.924495e+003,-1.459623e+000
2.925459e+003,-1.410163e+000
2.926424e+003,-1.341529e+000
2.927388e+003,-1.050356e+000
2.928352e+003,-1.239999e+000
2.929316e+003,-1.779783e+000
2.930281e+003,-2.084979e+000
2.931245e+003,-1.716779e+000
2.932209e+003,-1.080484e+000
2.933173e+003,-1.221948e+000
2.934137e+003,-1.541399e+000
2.935102e+003,-1.716842e+000
2.936066e+003,-1.525424e+000
2.937030e+003,-1.266227e+000
2.937994e+003,-1.276194e+000
2.938958e+003,-1.880195e+000
2.939923e+003,-2.417296e+000
2.940887e+003,-1.681370e+000
2.941851e+003,-1.016192e+000
2.942815e+003,-1.005822e+000
2.943780e+003,-1.528248e+000
2.944744e+003,-1.929358e+000
2.945708e+003,-1.884815e+000
2.946672e+003,-1.178790e+000
2.947637e+003,-9.223633e-001
2.948601e+003,-2.294583e+000
2.949565e+003,-2.881921e+000
2.950529e+003,-2.260517e+000
2.951494e+003,-1.030663e+000
2.952458e+003,-1.028068e+000
2.953422e+003,-2.255049e+000
2.954386e+003,-1.549831e+000
2.955351e+003,-7.156372e-001
2.956315e+003,-1.097880e+000
2.957279e+003,-1.771399e+000
2.958243e+003,-2.306142e+000
2.959208e+003,-2.217021e+000
2.960172e+003,-2.119271e+000
2.961136e+003,-2.145016e+000
2.962100e+003,-1.791781e+000
2.963064e+003,-2.122154e+000
2.964029e+003,-3.372648e+000
2.964993e+003,-2.539302e+000
2.965957e+003,-1.095623e+000
2.966921e+003,-1.835449e-001
2.967885e+003,-5.071340e-001
2.968850e+003,-1.298215e+000
2.969814e+003,-9.670970e-001
2.970778e+003,-8.665680e-001
2.971742e+003,-1.293108e+000
2.972707e+003,-1.514279e+000
2.973671e+003,-1.887389e+000
2.974635e+003,-2.655903e+000
2.975600e+003,-1.730781e+000
2.976564e+003,-1.136414e+000
2.977528e+003,-2.471001e+000
2.978492e+003,-2.879108e+000
2.979457e+003,-2.195462e+000
2.980421e+003,-1.449121e+000
2.981385e+003,-1.675985e+000
2.982349e+003,-2.469818e+000
2.983313e+003,-2.135614e+000
2.984278e+003,-1.306859e+000
2.985242e+003,-3.014415e-001
2.986206e+003,-5.834361e-001
2.987170e+003,-1.455597e+000
2.988135e+003,-1.908289e+000
2.989099e+003,-1.609370e+000
2.990063e+003,-1.264503e+000
2.991027e+003,-2.125317e+000
2.991991e+003,-2.481582e+000
2.992956e+003,-2.040690e+000
2.993920e+003,-1.374709e+000
2.994884e+003,-1.376588e+000
2.995848e+003,-2.282929e+000
2.996813e+003,-2.810313e+000
2.997777e+003,-2.530599e+000
2.998741e+003,-1.579222e+000
2.999705e+003,-1.364519e+000
3.000670e+003,-1.754370e+000
3.001634e+003,-2.386752e+000
3.002598e+003,-2.172400e+000
3.003562e+003,-1.342508e+000
3.004527e+003,-1.183175e+000
3.005491e+003,-1.634239e+000
3.006455e+003,-2.272208e+000
3.007419e+003,-1.687119e+000
3.008384e+003,-1.048249e+000
3.009348e+003,-1.369274e+000
3.010312e+003,-1.863682e+000
3.011276e+003,-2.051696e+000
3.012240e+003,-1.434419e+000
3.013205e+003,-1.494084e+000
3.014169e+003,-2.226485e+000
3.015133e+003,-2.572129e+000
3.016097e+003,-2.697111e+000
3.017062e+003,-2.605177e+000
3.018026e+003,-1.827463e+000
3.018990e+003,-1.329506e+000
3.019954e+003,-1.716721e+000
3.020918e+003,-2.240035e+000
3.021883e+003,-2.268805e+000
3.022847e+003,-1.332714e+000
3.023811e+003,-1.162015e+000
3.024775e+003,-1.467613e+000
3.025740e+003,-8.875956e-001
3.026704e+003,-7.789449e-001
3.027668e+003,-1.231045e+000
3.028632e+003,-7.751526e-001
3.029597e+003,-5.859935e-001
3.030561e+003,-1.348664e+000
3.031525e+003,-1.368178e+000
3.032489e+003,-1.055795e+000
3.033454e+003,-9.403096e-001
3.034418e+003,-1.350232e+000
3.035382e+003,-1.689390e+000
3.036346e+003,-1.046097e+000
3.037311e+003,-8.029327e-001
3.038275e+003,-1.142585e+000
3.039239e+003,-1.646603e+000
3.040203e+003,-1.514218e+000
3.041167e+003,-6.665415e-001
3.042132e+003,-3.898590e-001
3.043096e+003,-9.702545e-001
3.044060e+003,-1.973861e+000
3.045024e+003,-1.688282e+000
3.045989e+003,-9.292379e-001
3.046953e+003,-5.731161e-001
3.047917e+003,-1.185573e+000
3.048881e+003,-2.510981e+000
3.049845e+003,-3.783751e+000
3.050810e+003,-3.126686e+000
3.051774e+003,-1.281000e+000
3.052738e+003,-1.560767e+000
3.053702e+003,-2.275664e+000
3.054667e+003,-2.297118e+000
3.055631e+003,-1.057065e+000
3.056595e+003,-6.827748e-001
3.057559e+003,-2.345910e+000
3.058524e+003,-2.334149e+000
3.059488e+003,-1.152416e+000
3.060452e+003,-4.827850e-001
3.061416e+003,-8.936686e-001
3.062381e+003,-1.559790e+000
3.063345e+003,-9.357055e-001
3.064309e+003,-5.757924e-001
3.065273e+003,-8.009623e-001
3.066238e+003,-1.194278e+000
3.067202e+003,-1.438565e+000
3.068166e+003,-1.399365e+000
3.069130e+003,-1.153494e+000
3.070094e+003,-1.168243e+000
3.071059e+003,-1.680611e+000
3.072023e+003,-2.174858e+000
3.072987e+003,-2.196067e+000
3.073951e+003,-1.365341e+000
3.074916e+003,-1.133341e+000
3.075880e+003,-1.684593e+000
3.076844e+003,-2.405703e+000
3.077808e+003,-1.709359e+000
3.078772e+003,-2.615550e-001
3.079737e+003,-6.395264e-001
3.080701e+003,-1.432714e+000
3.081665e+003,-1.908218e+000
3.082629e+003,-1.967619e+000
3.083594e+003,-1.532819e+000
3.084558e+003,-8.409312e-001
3.085522e+003,-1.360513e+000
3.086486e+003,-1.982469e+000
3.087451e+003,-1.358433e+000
3.088415e+003,-8.994904e-001
3.089379e+003,-8.109100e-001
3.090343e+003,-7.917877e-001
3.091308e+003,-9.831207e-001
3.092272e+003,-1.183359e+000
3.093236e+003,-7.344910e-001
3.094200e+003,-1.010476e+000
3.095165e+003,-1.970319e+000
3.096129e+003,-1.707370e+000
3.097093e+003,-1.014425e+000
3.098057e+003,-4.385945e-001
3.099021e+003,-1.081439e+000
3.099986e+003,-1.689332e+000
3.100950e+003,-1.239667e+000
3.101914e+003,-9.128367e-001
3.102878e+003,-9.976003e-001
3.103843e+003,-1.424589e+000
3.104807e+003,-1.760532e+000
3.105771e+003,-1.794217e+000
3.106735e+003,-1.336863e+000
3.107699e+003,-1.098913e+000
3.108664e+003,-1.191896e+000
3.109628e+003,-1.200759e+000
3.110592e+003,-8.743886e-001
3.111556e+003,-3.710927e-001
3.112521e+003,-3.592906e-001
3.113485e+003,-6.524984e-001
3.114449e+003,-1.156116e+000
3.115413e+003,-1.371490e+000
3.116378e+003,-1.181359e+000
3.117342e+003,-6.866323e-001
3.118306e+003,-9.249013e-001
3.119270e+003,-1.446977e+000
3.120235e+003,-1.401086e+000
3.121199e+003,-7.671143e-001
3.122163e+003,-6.910808e-002
3.123127e+003,-2.621511e-001
3.124092e+003,-5.866689e-001
3.125056e+003,-7.326630e-001
3.126020e+003,-6.284403e-001
3.126984e+003,-9.832866e-001
3.127948e+003,-1.756340e+000
3.128913e+003,-1.607165e+000
3.129877e+003,-1.110030e+000
3.130841e+003,-7.074778e-001
3.131805e+003,-8.540009e-001
3.132770e+003,-1.018623e+000
3.133734e+003,-7.455068e-001
3.134698e+003,-9.609690e-001
3.135662e+003,-1.333639e+000
3.136626e+003,-1.087276e+000
3.137591e+003,-1.006831e+000
3.138555e+003,-9.912954e-001
3.139519e+003,-6.466125e-001
3.140483e+003,-3.767771e-001
3.141448e+003,-4.806600e-001
3.142412e+003,-1.356293e+000
3.143376e+003,-1.619376e+000
3.144340e+003,-9.809825e-001
3.145305e+003,-6.428080e-001
3.146269e+003,-7.876841e-001
3.147233e+003,-1.334165e+000
3.148197e+003,-1.023687e+000
3.149162e+003,-2.088888e-001
3.150126e+003,3.696838e-001
3.151090e+003,-6.684875e-002
3.152054e+003,-8.317881e-001
3.153019e+003,-1.279119e+000
3.153983e+003,-7.612427e-001
3.154947e+003,-1.818848e-002
3.155911e+003,-2.318715e-001
3.156875e+003,-3.332377e-001
3.157840e+003,-3.330536e-001
3.158804e+003,-1.231808e+000
3.159768e+003,-1.401176e+000
3.160732e+003,-6.759206e-001
3.161697e+003,-3.423818e-001
3.162661e+003,-2.897369e-001
3.163625e+003,-3.989909e-001
3.164589e+003,-4.612905e-001
3.165553e+003,-4.198385e-001
3.166518e+003,-2.823619e-001
3.167482e+003,6.475728e-002
3.168446e+003,-1.070252e-002
3.169410e+003,-9.417765e-001
3.170375e+003,-1.029461e+000
3.171339e+003,-4.508453e-001
3.172303e+003,1.444539e-001
3.173267e+003,1.454539e-001
3.174232e+003,-2.556854e-001
3.175196e+003,-9.457357e-001
3.176160e+003,-4.568919e-001
3.177124e+003,3.508647e-001
3.178089e+003,-3.001729e-001
3.179053e+003,-8.420075e-001
3.180017e+003,-6.894318e-001
3.180981e+003,2.324331e-001
3.181946e+003,4.987946e-001
3.182910e+003,-8.092753e-002
3.183874e+003,-1.928589e-001
3.184838e+003,2.995097e-002
3.185802e+003,4.632619e-001
3.186767e+003,9.245443e-001
3.187731e+003,5.399027e-001
3.188695e+003,-7.131053e-001
3.189659e+003,-6.636708e-001
3.190624e+003,1.119385e-002
3.191588e+003,5.582021e-001
3.192552e+003,2.366069e-001
3.193516e+003,-4.594665e-001
3.194480e+003,-7.141826e-001
3.195445e+003,-4.718821e-001
3.196409e+003,-1.663167e-001
3.197373e+003,-3.763224e-001
3.198337e+003,-2.785441e-001
3.199302e+003,-1.070557e-001
3.200266e+003,-4.396545e-001
3.201230e+003,-6.995738e-001
3.202194e+003,-8.041982e-001
3.203159e+003,-1.253681e+000
3.204123e+003,-9.050527e-001
3.205087e+003,1.090739e-001
3.206051e+003,2.923584e-003
3.207016e+003,-2.436717e-001
3.207980e+003,-1.719330e-001
3.208944e+003,2.758809e-001
3.209908e+003,4.561798e-001
3.210873e+003,1.533020e-001
3.211837e+003,6.675008e-002
3.212801e+003,1.802795e-001
3.213765e+003,3.909281e-001
3.214729e+003,3.182068e-001
3.215694e+003,-5.006307e-002
3.216658e+003,-4.498352e-001
3.217622e+003,-1.258036e-001
3.218586e+003,5.169057e-001
3.219551e+003,1.070811e+000
3.220515e+003,7.000865e-001
3.221479e+003,4.448873e-001
3.222443e+003,1.508676e+000
3.223407e+003,1.592368e+000
3.224372e+003,8.092794e-001
3.225336e+003,1.662313e-001
3.226300e+003,5.066773e-001
3.227264e+003,1.351603e+000
3.228229e+003,1.493874e+000
3.229193e+003,1.651424e+000
3.230157e+003,2.095423e+000
3.231121e+003,2.879987e+000
3.232086e+003,2.912389e+000
3.233050e+003,2.277235e+000
3.234014e+003,2.684597e+000
3.234978e+003,3.096728e+000
3.235943e+003,3.291158e+000
3.236907e+003,4.110178e+000
3.237871e+003,4.760676e+000
3.238835e+003,4.992426e+000
3.239800e+003,5.823369e+000
3.240764e+003,7.126866e+000
3.241728e+003,8.685691e+000
3.242692e+003,8.941764e+000
3.243656e+003,9.097398e+000
3.244621e+003,1.020246e+001
3.245585e+003,1.144375e+001
3.246549e+003,1.261039e+001
3.247513e+003,1.378030e+001
3.248478e+003,1.450216e+001
3.249442e+003,1.528323e+001
3.250406e+003,1.658455e+001
3.251370e+003,1.774389e+001
3.252334e+003,1.840657e+001
3.253299e+003,1.839920e+001
3.254263e+003,1.782519e+001
3.255227e+003,1.749195e+001
3.256191e+003,1.824347e+001
3.257156e+003,1.713745e+001
3.258120e+003,1.511190e+001
3.259084e+003,1.519879e+001
3.260048e+003,1.442221e+001
3.261013e+003,1.220933e+001
3.261977e+003,9.504718e+000
3.262941e+003,8.300004e+000
3.263905e+003,8.235172e+000
3.264870e+003,6.754472e+000
3.265834e+003,5.593955e+000
3.266798e+003,5.124461e+000
3.267762e+003,3.723716e+000
3.268727e+003,3.147799e+000
3.269691e+003,3.696012e+000
3.270655e+003,3.055075e+000
3.271619e+003,2.054687e+000
3.272583e+003,1.498013e+000
3.273548e+003,2.184624e+000
3.274512e+003,2.198750e+000
3.275476e+003,6.732280e-001
3.276440e+003,4.143402e-001
3.277405e+003,4.317047e-001
3.278369e+003,1.532430e-001
3.279333e+003,3.065847e-001
3.280297e+003,4.918030e-001
3.281261e+003,3.573507e-001
3.282226e+003,3.302633e-001
3.283190e+003,1.516103e-001
3.284154e+003,-2.761047e-001
3.285118e+003,-4.215546e-001
3.286083e+003,-2.884450e-001
3.287047e+003,2.950032e-005
3.288011e+003,4.873159e-001
3.288975e+003,4.090047e-001
3.289940e+003,-6.814026e-001
3.290904e+003,-9.367523e-001
3.291868e+003,-1.425517e-001
3.292832e+003,1.144578e+000
3.293797e+003,5.543711e-001
3.294761e+003,-5.864634e-001
3.295725e+003,-2.726003e-001
3.296689e+003,-1.833120e-001
3.297654e+003,-4.735789e-001
3.298618e+003,-7.789856e-001
3.299582e+003,-5.387624e-001
3.300546e+003,-2.751567e-002
3.301510e+003,3.013194e-001
3.302475e+003,-2.601115e-003
3.303439e+003,-7.056539e-001
3.304403e+003,-1.026299e+000
3.305367e+003,-4.290090e-001
3.306332e+003,3.419667e-001
3.307296e+003,-2.755229e-001
3.308260e+003,-3.302236e-001
3.309224e+003,2.107178e-001
3.310189e+003,4.834127e-001
3.311153e+003,-3.148132e-001
3.312117e+003,-1.400991e+000
3.313081e+003,-7.488424e-001
3.314046e+003,-5.164225e-001
3.315010e+003,-8.262614e-001
3.315974e+003,-4.992656e-001
3.316938e+003,-2.327393e-001
3.317903e+003,-1.519257e-001
3.318867e+003,2.055196e-001
3.319831e+003,2.945363e-001
3.320795e+003,-5.039470e-002
3.321760e+003,-6.114980e-001
3.322724e+003,-3.151296e-001
3.323688e+003,5.774760e-001
3.324652e+003,3.185354e-001
3.325616e+003,-9.256592e-002
3.326581e+003,-1.346812e-001
3.327545e+003,5.094910e-002
3.328509e+003,-7.729187e-002
3.329473e+003,-5.228109e-001
3.330438e+003,-6.407135e-001
3.331402e+003,-2.762227e-001
3.332366e+003,1.960225e-001
3.333330e+003,-4.985687e-001
3.334294e+003,-9.641317e-001
3.335259e+003,-7.441518e-001
3.336223e+003,-2.989634e-001
3.337187e+003,3.787923e-001
3.338151e+003,8.882650e-001
3.339116e+003,-9.042969e-002
3.340080e+003,-5.011546e-001
3.341044e+003,3.413249e-001
3.342008e+003,6.054199e-001
3.342973e+003,5.783997e-001
3.343937e+003,4.766215e-001
3.344901e+003,7.472229e-002
3.345865e+003,6.814982e-002
3.346830e+003,6.332774e-001
3.347794e+003,4.113973e-002
3.348758e+003,-1.609029e-001
3.349722e+003,3.724955e-001
3.350687e+003,-4.171723e-001
3.351651e+003,-1.018545e+000
3.352615e+003,-5.100301e-001
3.353579e+003,-8.128967e-002
3.354543e+003,-4.888204e-002
3.355508e+003,-2.570577e-001
3.356472e+003,5.288686e-001
3.357436e+003,8.139384e-001
3.358400e+003,-1.435486e-001
3.359365e+003,-4.229889e-001
3.360329e+003,2.492777e-002
3.361293e+003,7.491995e-001
3.362257e+003,9.741109e-002
3.363221e+003,-2.836222e-001
3.364186e+003,4.543671e-001
3.365150e+003,7.261953e-001
3.366114e+003,2.611979e-001
3.367078e+003,-6.266154e-001
3.368043e+003,-2.936106e-001
3.369007e+003,2.646556e-001
3.369971e+003,3.025665e-001
3.370935e+003,-1.944885e-002
3.371900e+003,-1.753235e-002
3.372864e+003,3.985769e-001
3.373828e+003,3.205414e-001
3.374792e+003,-6.808777e-002
3.375757e+003,-3.968506e-001
3.376721e+003,-6.175842e-002
3.377685e+003,2.051229e-001
3.378649e+003,2.008372e-001
3.379614e+003,5.651255e-001
3.380578e+003,1.563924e-002
3.381542e+003,-1.253304e+000
3.382506e+003,2.872477e-001
3.383470e+003,1.170073e+000
3.384435e+003,1.324697e-001
3.385399e+003,-2.867778e-001
3.386363e+003,-3.385457e-001
3.387327e+003,-2.361715e-001
3.388292e+003,4.570302e-001
3.389256e+003,5.086436e-001
3.390220e+003,-3.048258e-001
3.391184e+003,-7.907308e-002
3.392148e+003,1.852356e-001
3.393113e+003,1.893514e-002
3.394077e+003,-2.120514e-001
3.395041e+003,1.336975e-002
3.396005e+003,5.967092e-001
3.396970e+003,2.996714e-001
3.397934e+003,8.849284e-002
3.398898e+003,3.692861e-001
3.399862e+003,1.080602e+000
3.400827e+003,8.253397e-001
3.401791e+003,-5.227529e-001
3.402755e+003,-1.447191e+000
3.403719e+003,-8.649109e-001
3.404684e+003,6.131236e-001
3.405648e+003,9.135112e-001
3.406612e+003,4.967499e-001
3.407576e+003,4.689331e-002
3.408541e+003,6.109375e-001
3.409505e+003,3.420634e-001
3.410469e+003,-6.518595e-001
3.411433e+003,-6.805522e-001
3.412397e+003,-7.267863e-002
3.413362e+003,6.345622e-001
3.414326e+003,6.488718e-001
3.415290e+003,3.899994e-001
3.416254e+003,1.472565e-001
3.417219e+003,6.292114e-002
3.418183e+003,2.968669e-001
3.419147e+003,5.229157e-001
3.420111e+003,1.701436e-001
3.421075e+003,-2.516093e-001
3.422040e+003,-3.207397e-001
3.423004e+003,4.489929e-001
3.423968e+003,2.778737e-001
3.424932e+003,-4.104970e-001
3.425897e+003,-4.016815e-001
3.426861e+003,3.992411e-002
3.427825e+003,4.917704e-001
3.428789e+003,5.107910e-001
3.429754e+003,3.378042e-001
3.430718e+003,2.825877e-001
3.431682e+003,5.268484e-001
3.432646e+003,2.628316e-001
3.433611e+003,-4.568888e-002
3.434575e+003,2.978068e-001
3.435539e+003,4.770508e-002
3.436503e+003,-4.355031e-001
3.437468e+003,-5.879456e-001
3.438432e+003,-5.615407e-001
3.439396e+003,-2.639475e-001
3.440360e+003,3.040924e-001
3.441324e+003,4.033875e-001
3.442289e+003,-1.131063e-001
3.443253e+003,-1.025638e+000
3.444217e+003,-4.676137e-001
3.445181e+003,9.631042e-002
3.446146e+003,-4.212270e-001
3.447110e+003,6.599569e-001
3.448074e+003,1.332629e+000
3.449038e+003,5.178578e-001
3.450002e+003,-4.223816e-001
3.450967e+003,-3.404775e-001
3.451931e+003,7.260193e-001
3.452895e+003,6.467794e-002
3.453859e+003,-2.508169e-001
3.454824e+003,3.181376e-001
3.455788e+003,-3.492625e-001
3.456752e+003,-8.344727e-001
3.457716e+003,-5.090668e-001
3.458681e+003,-2.447978e-001
3.459645e+003,-1.391062e-001
3.460609e+003,-2.904002e-001
3.461573e+003,-8.688772e-001
3.462538e+003,-4.243479e-001
3.463502e+003,7.056722e-001
3.464466e+003,3.988943e-001
3.465430e+003,-5.412852e-001
3.466395e+003,-1.269777e+000
3.467359e+003,-2.862132e-001
3.468323e+003,2.884755e-001
3.469287e+003,2.437337e-002
3.470251e+003,-5.993927e-001
3.471216e+003,-5.561422e-002
3.472180e+003,9.413605e-001
3.473144e+003,6.705434e-001
3.474108e+003,-2.688680e-001
3.475073e+003,-7.095642e-001
3.476037e+003,4.307526e-001
3.477001e+003,4.455648e-001
3.477965e+003,-8.668009e-002
3.478929e+003,-7.800903e-002
3.479894e+003,9.105936e-002
3.480858e+003,-2.469381e-001
3.481822e+003,-1.449160e+000
3.482786e+003,-7.869070e-001
3.483751e+003,1.263479e-001
3.484715e+003,-4.878133e-002
3.485679e+003,3.060842e-001
3.486643e+003,3.627675e-001
3.487608e+003,-3.639384e-001
3.488572e+003,-7.090108e-001
3.489536e+003,-7.019511e-001
3.490500e+003,-5.120077e-001
3.491465e+003,-3.424560e-001
3.492429e+003,-1.717499e-001
3.493393e+003,1.483124e-001
3.494357e+003,8.950571e-001
3.495322e+003,2.102041e-001
3.496286e+003,-1.234743e+000
3.497250e+003,-1.175090e-001
3.498214e+003,7.288971e-001
3.499178e+003,7.719076e-001
3.500143e+003,5.377645e-001
