9.998845e+002,-8.061418e-001
1.000849e+003,-1.545266e-001
1.001813e+003,2.678805e-001
1.002777e+003,4.341286e-001
1.003741e+003,3.549522e-001
1.004706e+003,1.541704e-001
1.005670e+003,9.653098e-002
1.006634e+003,4.000022e-001
1.007598e+003,4.327853e-001
1.008563e+003,2.036038e-001
1.009527e+003,4.440546e-001
1.010491e+003,9.050947e-001
1.011455e+003,1.137471e+000
1.012420e+003,9.404286e-001
1.013384e+003,3.999778e-001
1.014348e+003,-6.655639e-001
1.015312e+003,-5.533370e-001
1.016276e+003,9.902899e-002
1.017241e+003,4.152055e-001
1.018205e+003,3.862638e-001
1.019169e+003,3.017023e-002
1.020133e+003,-3.958868e-001
1.021098e+003,-1.673046e-001
1.022062e+003,7.083541e-001
1.023026e+003,5.484752e-001
1.023990e+003,1.862061e-001
1.024955e+003,3.487615e-001
1.025919e+003,7.187489e-001
1.026883e+003,8.868475e-001
1.027847e+003,7.830955e-001
1.028812e+003,5.844494e-001
1.029776e+003,3.947449e-001
1.030740e+003,7.560148e-001
1.031704e+003,9.320457e-001
1.032668e+003,3.513189e-001
1.033633e+003,-3.924477e-001
1.034597e+003,-7.700745e-001
1.035561e+003,-7.914013e-001
1.036525e+003,-6.057673e-001
1.037490e+003,-3.007552e-001
1.038454e+003,2.293779e-001
1.039418e+003,3.657604e-001
1.040382e+003,-2.817089e-001
1.041347e+003,-6.866316e-001
1.042311e+003,-2.698897e-001
1.043275e+003,3.273282e-001
1.044239e+003,1.797890e-001
1.045203e+003,-2.645430e-002
1.046168e+003,2.005354e-001
1.047132e+003,5.186657e-001
1.048096e+003,8.381403e-001
1.049060e+003,6.293002e-001
1.050025e+003,-1.057212e-001
1.050989e+003,-5.276800e-001
1.051953e+003,2.042930e-001
1.052917e+003,5.795732e-001
1.053882e+003,-9.402744e-003
1.054846e+003,-3.326383e-001
1.055810e+003,-3.947205e-001
1.056774e+003,-4.839311e-001
1.057739e+003,-6.172452e-001
1.058703e+003,-4.450340e-001
1.059667e+003,2.902122e-001
1.060631e+003,3.974626e-001
1.061595e+003,-8.185869e-002
1.062560e+003,1.834262e-001
1.063524e+003,7.362272e-001
1.064488e+003,9.400246e-001
1.065452e+003,6.342951e-001
1.066417e+003,-2.161699e-002
1.067381e+003,-9.836104e-001
1.068345e+003,-4.706293e-001
1.069309e+003,6.692838e-001
1.070274e+003,5.374234e-001
1.071238e+003,-1.009854e-004
1.072202e+003,-2.426464e-001
1.073166e+003,-6.986750e-002
1.074130e+003,3.221951e-001
1.075095e+003,8.147694e-001
1.076059e+003,8.917303e-001
1.077023e+003,8.242254e-001
1.077987e+003,1.022875e+000
1.078952e+003,1.002507e+000
1.079916e+003,4.185258e-001
1.080880e+003,-2.401206e-001
1.081844e+003,-3.460183e-001
1.082809e+003,-8.453591e-002
1.083773e+003,3.017478e-001
1.084737e+003,5.536898e-001
1.085701e+003,4.898438e-001
1.086666e+003,3.819158e-001
1.087630e+003,3.067954e-001
1.088594e+003,3.880304e-001
1.089558e+003,6.217197e-001
1.090522e+003,6.913508e-001
1.091487e+003,1.840626e-001
1.092451e+003,-8.581099e-002
1.093415e+003,6.178811e-002
1.094379e+003,6.304443e-001
1.095344e+003,1.309762e+000
1.096308e+003,1.272877e+000
1.097272e+003,4.640625e-001
1.098236e+003,-8.423129e-002
1.099201e+003,2.068925e-001
1.100165e+003,6.463068e-001
1.101129e+003,1.077743e+000
1.102093e+003,5.022172e-001
1.103057e+003,-4.203436e-001
1.104022e+003,-8.227034e-001
1.104986e+003,-5.697371e-001
1.105950e+003,7.941783e-003
1.106914e+003,7.325650e-001
1.107879e+003,-1.277333e-001
1.108843e+003,-1.462807e+000
1.109807e+003,-4.247608e-001
1.110771e+003,1.008206e+000
1.111736e+003,1.408428e+000
1.112700e+003,8.694824e-001
1.113664e+003,3.690019e-002
1.114628e+003,-6.612266e-001
1.115593e+003,-4.092352e-002
1.116557e+003,7.049372e-001
1.117521e+003,-1.679133e-002
1.118485e+003,-6.954041e-001
1.119449e+003,-8.157576e-001
1.120414e+003,-4.584772e-001
1.121378e+003,8.253118e-002
1.122342e+003,3.315074e-001
1.123306e+003,-3.691101e-001
1.124271e+003,-9.290277e-001
1.125235e+003,-4.547746e-001
1.126199e+003,-6.749101e-002
1.127163e+003,1.304704e-001
1.128128e+003,1.007319e-001
1.129092e+003,-6.754539e-002
1.130056e+003,-1.711237e-001
1.131020e+003,-8.471014e-002
1.131984e+003,-9.228405e-002
1.132949e+003,-3.899475e-001
1.133913e+003,-1.544067e-001
1.134877e+003,3.066928e-001
1.135841e+003,4.017933e-001
1.136806e+003,2.172718e-001
1.137770e+003,7.862826e-002
1.138734e+003,8.447876e-002
1.139698e+003,1.068237e-001
1.140663e+003,1.488770e-001
1.141627e+003,5.446400e-001
1.142591e+003,7.877918e-001
1.143555e+003,2.162098e-001
1.144520e+003,-5.016618e-001
1.145484e+003,-7.927657e-001
1.146448e+003,-5.354559e-001
1.147412e+003,1.111783e-001
1.148376e+003,6.549072e-001
1.149341e+003,-4.690557e-001
1.150305e+003,-1.299144e+000
1.151269e+003,-6.167470e-001
1.152233e+003,9.614591e-002
1.153198e+003,2.674727e-001
1.154162e+003,-3.702259e-001
1.155126e+003,-1.623315e+000
1.156090e+003,-2.186432e+000
1.157055e+003,-3.627236e-001
1.158019e+003,7.365900e-001
1.158983e+003,2.465931e-001
1.159947e+003,-2.953025e-001
1.160911e+003,-6.445817e-001
1.161876e+003,-6.552390e-001
1.162840e+003,-4.287720e-001
1.163804e+003,-3.090593e-001
1.164769e+003,-4.652183e-001
1.165733e+003,-7.415100e-001
1.166697e+003,-1.050356e+000
1.167661e+003,-3.504211e-001
1.168625e+003,5.039296e-001
1.169590e+003,4.020053e-001
1.170554e+003,-1.859148e-001
1.171518e+003,-3.124922e-001
1.172482e+003,1.231911e-002
1.173447e+003,-1.353277e-001
1.174411e+003,-5.210183e-001
1.175375e+003,-5.620800e-001
1.176339e+003,-4.117659e-001
1.177304e+003,4.099343e-003
1.178268e+003,3.225597e-001
1.179232e+003,3.533026e-001
1.180196e+003,8.503085e-002
1.181161e+003,-3.737710e-001
1.182125e+003,-5.584301e-001
1.183089e+003,5.037942e-001
1.184053e+003,7.336115e-001
1.185017e+003,-6.976851e-001
1.185982e+003,-1.109686e+000
1.186946e+003,-3.847495e-001
1.187910e+003,4.041104e-001
1.188874e+003,5.553844e-001
1.189839e+003,1.893643e-002
1.190803e+003,-1.411018e+000
1.191767e+003,-1.783648e+000
1.192731e+003,-1.058715e+000
1.193696e+003,-4.106706e-001
1.194660e+003,-9.660977e-002
1.195624e+003,-6.164423e-001
1.196588e+003,-1.399445e+000
1.197552e+003,-1.513828e+000
1.198517e+003,-8.401872e-001
1.199481e+003,-4.684837e-002
1.200445e+003,6.055398e-001
1.201409e+003,2.570723e-001
1.202374e+003,-3.315929e-001
1.203338e+003,-1.046038e+000
1.204302e+003,-1.266266e+000
1.205266e+003,-7.383345e-001
1.206231e+003,-1.578158e-001
1.207195e+003,-3.453713e-001
1.208159e+003,-5.983298e-001
1.209123e+003,3.516402e-002
1.210088e+003,3.544578e-001
1.211052e+003,-6.550959e-002
1.212016e+003,-2.110640e-001
1.212980e+003,-4.595393e-002
1.213944e+003,5.165794e-002
1.214909e+003,-9.585294e-002
1.215873e+003,-4.061457e-001
1.216837e+003,-8.515469e-001
1.217801e+003,-1.093775e+000
1.218766e+003,-1.078131e+000
1.219730e+003,-8.325484e-001
1.220694e+003,-5.197538e-001
1.221658e+003,-3.349743e-001
1.222623e+003,-2.260842e-001
1.223587e+003,-5.301292e-002
1.224551e+003,7.891735e-002
1.225515e+003,-1.706021e-001
1.226479e+003,-5.545482e-001
1.227444e+003,-3.981290e-001
1.228408e+003,-4.026212e-002
1.229372e+003,6.527787e-001
1.230336e+003,7.420721e-001
1.231301e+003,-4.222856e-002
1.232265e+003,-6.461781e-001
1.233229e+003,-3.070845e-001
1.234193e+003,1.784069e-001
1.235158e+003,7.365168e-002
1.236122e+003,-1.626132e-001
1.237086e+003,-5.543285e-001
1.238050e+003,-3.271074e-001
1.239015e+003,2.816917e-001
1.239979e+003,6.628795e-001
1.240943e+003,6.573564e-001
1.241907e+003,2.856079e-001
1.242871e+003,-2.955799e-001
1.243836e+003,-4.285423e-001
1.244800e+003,-9.047630e-002
1.245764e+003,-1.810846e-001
1.246728e+003,-3.142800e-001
1.247693e+003,-2.701638e-002
1.248657e+003,3.071378e-001
1.249621e+003,4.265403e-001
1.250585e+003,2.929621e-001
1.251550e+003,-1.433216e-002
1.252514e+003,-3.292292e-001
1.253478e+003,-3.519454e-001
1.254442e+003,-2.458862e-001
1.255406e+003,-3.552246e-003
1.256371e+003,3.160511e-003
1.257335e+003,-2.693193e-001
1.258299e+003,-5.998979e-001
1.259263e+003,-8.095198e-001
1.260228e+003,-7.018133e-001
1.261192e+003,-2.747570e-001
1.262156e+003,-5.458540e-002
1.263120e+003,-3.232200e-001
1.264085e+003,-1.844227e-001
1.265049e+003,1.501409e-001
1.266013e+003,1.225719e-001
1.266977e+003,-3.878507e-003
1.267942e+003,9.429377e-002
1.268906e+003,3.588934e-001
1.269870e+003,5.879949e-001
1.270834e+003,6.893011e-001
1.271798e+003,4.736628e-001
1.272763e+003,1.430653e-001
1.273727e+003,-1.407182e-001
1.274691e+003,-1.248180e-001
1.275655e+003,6.215132e-001
1.276620e+003,7.401090e-001
1.277584e+003,9.447132e-003
1.278548e+003,-5.121149e-001
1.279512e+003,-2.461370e-001
1.280477e+003,-1.725275e-001
1.281441e+003,-9.979398e-001
1.282405e+003,-1.159629e+000
1.283369e+003,-4.490279e-001
1.284333e+003,1.614535e-001
1.285298e+003,4.933616e-001
1.286262e+003,1.500666e-001
1.287226e+003,-4.345581e-001
1.288190e+003,-5.831510e-001
1.289155e+003,-3.234209e-001
1.290119e+003,-3.070335e-001
1.291083e+003,-4.003651e-001
1.292047e+003,-1.253263e-001
1.293012e+003,1.124567e-001
1.293976e+003,-1.272971e-002
1.294940e+003,-1.141491e-001
1.295904e+003,-5.218506e-002
1.296869e+003,-4.313854e-002
1.297833e+003,-2.050459e-001
1.298797e+003,-3.901611e-001
1.299761e+003,-4.746183e-001
1.300725e+003,-5.037642e-001
1.301690e+003,-5.082064e-001
1.302654e+003,-1.981013e-001
1.303618e+003,1.674183e-001
1.304582e+003,-5.479892e-001
1.305547e+003,-1.541010e+000
1.306511e+003,-1.504453e+000
1.307475e+003,-6.093817e-001
1.308439e+003,5.263894e-002
1.309404e+003,3.358665e-001
1.310368e+003,3.059925e-001
1.311332e+003,1.266280e-001
1.312296e+003,1.184404e-001
1.313260e+003,5.398282e-002
1.314225e+003,-2.933905e-001
1.315189e+003,-3.177168e-001
1.316153e+003,8.666881e-002
1.317117e+003,1.596347e-002
1.318082e+003,-9.000899e-001
1.319046e+003,-1.157674e+000
1.320010e+003,4.677179e-001
1.320974e+003,1.120094e+000
1.321939e+003,1.462391e-001
1.322903e+003,-4.193959e-001
1.323867e+003,-5.787154e-001
1.324831e+003,-2.242432e-001
1.325796e+003,2.330888e-001
1.326760e+003,2.685036e-001
1.327724e+003,-5.237926e-002
1.328688e+003,-1.964766e-001
1.329652e+003,-1.367642e-001
1.330617e+003,2.557140e-001
1.331581e+003,5.048318e-001
1.332545e+003,3.348167e-002
1.333509e+003,-3.018599e-001
1.334474e+003,-2.471746e-001
1.335438e+003,-1.435946e-001
1.336402e+003,-9.810347e-002
1.337366e+003,2.553966e-001
1.338331e+003,9.759732e-001
1.339295e+003,1.074496e+000
1.340259e+003,-9.154829e-002
1.341223e+003,-7.872337e-001
1.342188e+003,-1.012902e+000
1.343152e+003,-1.018559e+000
1.344116e+003,-8.817538e-001
1.345080e+003,-6.217363e-001
1.346044e+003,-2.958618e-001
1.347009e+003,7.551491e-002
1.347973e+003,2.152732e-001
1.348937e+003,-3.245228e-001
1.349901e+003,-9.338967e-001
1.350866e+003,-4.454612e-001
1.351830e+003,-3.640137e-002
1.352794e+003,-3.364591e-001
1.353758e+003,-7.379705e-001
1.354723e+003,-1.073079e+000
1.355687e+003,-9.086626e-001
1.356651e+003,-3.733931e-001
1.357615e+003,-1.248735e-001
1.358579e+003,-3.253019e-001
1.359544e+003,-1.413397e-001
1.360508e+003,6.307928e-001
1.361472e+003,6.442649e-001
1.362436e+003,2.192549e-001
1.363401e+003,-3.254250e-001
1.364365e+003,-5.657793e-001
1.365329e+003,2.319780e-002
1.366293e+003,6.881558e-001
1.367258e+003,8.259244e-001
1.368222e+003,5.391535e-001
1.369186e+003,1.424860e-001
1.370150e+003,2.316972e-001
1.371115e+003,1.752527e+000
1.372079e+003,2.192311e+000
1.373043e+003,6.142423e-001
1.374007e+003,-8.463801e-002
1.374971e+003,-8.526056e-003
1.375936e+003,2.075828e-001
1.376900e+003,3.804421e-001
1.377864e+003,6.390414e-001
1.378828e+003,8.543646e-001
1.379793e+003,6.307595e-001
1.380757e+003,1.800593e-001
1.381721e+003,4.869696e-001
1.382685e+003,9.905828e-001
1.383650e+003,1.126005e+000
1.384614e+003,1.028628e+000
1.385578e+003,5.923839e-001
1.386542e+003,6.211038e-001
1.387506e+003,1.182981e+000
1.388471e+003,1.404864e+000
1.389435e+003,8.782604e-001
1.390399e+003,3.125533e-001
1.391363e+003,3.681197e-002
1.392328e+003,-3.457697e-002
1.393292e+003,6.966886e-002
1.394256e+003,-1.814453e-001
1.395220e+003,-4.482755e-001
1.396185e+003,-2.306752e-001
1.397149e+003,4.518599e-002
1.398113e+003,-7.803290e-002
1.399077e+003,-2.989236e-001
1.400042e+003,-1.677413e-001
1.401006e+003,1.715598e-001
1.401970e+003,5.358021e-001
1.402934e+003,6.094061e-001
1.403898e+003,-2.921553e-001
1.404863e+003,-2.397627e-001
1.405827e+003,7.987083e-001
1.406791e+003,1.117119e+000
1.407755e+003,8.261231e-001
1.408720e+003,5.956731e-001
1.409684e+003,5.643155e-001
1.410648e+003,5.181962e-001
1.411612e+003,4.270319e-001
1.412577e+003,3.734519e-001
1.413541e+003,3.351019e-001
1.414505e+003,2.107966e-001
1.415469e+003,1.995839e-001
1.416433e+003,5.946023e-001
1.417398e+003,6.997026e-001
1.418362e+003,3.443726e-001
1.419326e+003,1.075961e-001
1.420290e+003,2.158680e-001
1.421255e+003,5.252197e-001
1.422219e+003,8.564986e-001
1.423183e+003,8.861583e-001
1.424147e+003,4.673051e-001
1.425112e+003,7.079967e-001
1.426076e+003,1.287872e+000
1.427040e+003,6.832342e-001
1.428004e+003,-3.350275e-002
1.428969e+003,2.016280e-001
1.429933e+003,3.091253e-001
1.430897e+003,-4.646151e-001
1.431861e+003,-8.659490e-001
1.432825e+003,7.666904e-002
1.433790e+003,9.943548e-001
1.434754e+003,6.645419e-001
1.435718e+003,3.653964e-001
1.436682e+003,7.397017e-001
1.437647e+003,9.628462e-001
1.438611e+003,1.022574e+000
1.439575e+003,6.995783e-001
1.440539e+003,4.635898e-001
1.441504e+003,1.114357e+000
1.442468e+003,1.882574e+000
1.443432e+003,1.686993e+000
1.444396e+003,1.144652e+000
1.445360e+003,1.631142e+000
1.446325e+003,2.312459e+000
1.447289e+003,2.070725e+000
1.448253e+003,1.457092e+000
1.449217e+003,2.431641e-001
1.450182e+003,1.378251e-001
1.451146e+003,1.000686e+000
1.452110e+003,1.650365e+000
1.453074e+003,1.862884e+000
1.454039e+003,1.842193e+000
1.455003e+003,1.668900e+000
1.455967e+003,1.322108e+000
1.456931e+003,8.758845e-001
1.457896e+003,6.932129e-001
1.458860e+003,8.150502e-001
1.459824e+003,1.648782e+000
1.460788e+003,2.256331e+000
1.461752e+003,2.112367e+000
1.462717e+003,1.934699e+000
1.463681e+003,1.867133e+000
1.464645e+003,1.642093e+000
1.465609e+003,1.344185e+000
1.466574e+003,1.418807e+000
1.467538e+003,1.934224e+000
1.468502e+003,2.379978e+000
1.469466e+003,2.615453e+000
1.470431e+003,2.275099e+000
1.471395e+003,1.800391e+000
1.472359e+003,2.473056e+000
1.473323e+003,3.048343e+000
1.474287e+003,2.619343e+000
1.475252e+003,2.440664e+000
1.476216e+003,2.926852e+000
1.477180e+003,3.011679e+000
1.478144e+003,2.346772e+000
1.479109e+003,1.939451e+000
1.480073e+003,2.307049e+000
1.481037e+003,2.805309e+000
1.482001e+003,3.329529e+000
1.482966e+003,2.933252e+000
1.483930e+003,2.217898e+000
1.484894e+003,2.672271e+000
1.485858e+003,3.389216e+000
1.486823e+003,3.882255e+000
1.487787e+003,3.879592e+000
1.488751e+003,3.358901e+000
1.489715e+003,3.193771e+000
1.490679e+003,3.838064e+000
1.491644e+003,4.269929e+000
1.492608e+003,3.829627e+000
1.493572e+003,3.639480e+000
1.494536e+003,4.121645e+000
1.495501e+003,4.412280e+000
1.496465e+003,4.600680e+000
1.497429e+003,4.818559e+000
1.498393e+003,5.188839e+000
1.499358e+003,6.056548e+000
1.500322e+003,6.617853e+000
1.501286e+003,6.325368e+000
1.502250e+003,5.996514e+000
1.503215e+003,6.378732e+000
1.504179e+003,6.646260e+000
1.505143e+003,6.112023e+000
1.506107e+003,5.953681e+000
1.507072e+003,6.880548e+000
1.508036e+003,7.219861e+000
1.509000e+003,7.171761e+000
1.509964e+003,7.111246e+000
1.510928e+003,7.068537e+000
1.511893e+003,7.044202e+000
1.512857e+003,7.004087e+000
1.513821e+003,6.925025e+000
1.514785e+003,6.851294e+000
1.515750e+003,6.831118e+000
1.516714e+003,6.813114e+000
1.517678e+003,6.739902e+000
1.518642e+003,6.754590e+000
1.519607e+003,6.847156e+000
1.520571e+003,7.606256e+000
1.521535e+003,8.616260e+000
1.522499e+003,8.087292e+000
1.523464e+003,7.331031e+000
1.524428e+003,8.166200e+000
1.525392e+003,9.447838e+000
1.526356e+003,9.874784e+000
1.527320e+003,9.538419e+000
1.528285e+003,8.990909e+000
1.529249e+003,8.846347e+000
1.530213e+003,9.726052e+000
1.531177e+003,1.054855e+001
1.532142e+003,1.082680e+001
1.533106e+003,1.073292e+001
1.534070e+003,1.052069e+001
1.535034e+003,1.149178e+001
1.535999e+003,1.263548e+001
1.536963e+003,1.246130e+001
1.537927e+003,1.196883e+001
1.538891e+003,1.227418e+001
1.539855e+003,1.303204e+001
1.540820e+003,1.359347e+001
1.541784e+003,1.404127e+001
1.542748e+003,1.447411e+001
1.543712e+003,1.522034e+001
1.544677e+003,1.668468e+001
1.545641e+003,1.746551e+001
1.546605e+003,1.770056e+001
1.547569e+003,1.867831e+001
1.548534e+003,1.981845e+001
1.549498e+003,2.018656e+001
1.550462e+003,2.055023e+001
1.551426e+003,2.165569e+001
1.552391e+003,2.321987e+001
1.553355e+003,2.479597e+001
1.554319e+003,2.639807e+001
1.555283e+003,2.806169e+001
1.556247e+003,2.988747e+001
1.557212e+003,3.195163e+001
1.558176e+003,3.389668e+001
1.559140e+003,3.575368e+001
1.560104e+003,3.808596e+001
1.561069e+003,4.061903e+001
1.562033e+003,4.274578e+001
1.562997e+003,4.523941e+001
1.563961e+003,4.879638e+001
1.564926e+003,5.284852e+001
1.565890e+003,5.689697e+001
1.566854e+003,6.100898e+001
1.567818e+003,6.557253e+001
1.568782e+003,7.183272e+001
1.569747e+003,8.049109e+001
1.570711e+003,8.907675e+001
1.571675e+003,9.740547e+001
1.572639e+003,1.070042e+002
1.573604e+003,1.184070e+002
1.574568e+003,1.323543e+002
1.575532e+003,1.484979e+002
1.576496e+003,1.663847e+002
1.577461e+003,1.863782e+002
1.578425e+003,2.090317e+002
1.579389e+003,2.356662e+002
1.580353e+003,2.664279e+002
1.581318e+003,2.987679e+002
1.582282e+003,3.314807e+002
1.583246e+003,3.645250e+002
1.584210e+003,3.973848e+002
1.585174e+003,4.255599e+002
1.586139e+003,4.462040e+002
1.587103e+003,4.570635e+002
1.588067e+003,4.572479e+002
1.589031e+003,4.452464e+002
1.589996e+003,4.249405e+002
1.590960e+003,3.985242e+002
1.591924e+003,3.675200e+002
1.592888e+003,3.343065e+002
1.593853e+003,3.006626e+002
1.594817e+003,2.679070e+002
1.595781e+003,2.378826e+002
1.596745e+003,2.107994e+002
1.597709e+003,1.860105e+002
1.598674e+003,1.641679e+002
1.599638e+003,1.471365e+002
1.600602e+003,1.324090e+002
1.601566e+003,1.193691e+002
1.602531e+003,1.075324e+002
1.603495e+003,9.689204e+001
1.604459e+003,8.787637e+001
1.605423e+003,7.993572e+001
1.606388e+003,7.188808e+001
1.607352e+003,6.429927e+001
1.608316e+003,5.886610e+001
1.609280e+003,5.506828e+001
1.610245e+003,5.095022e+001
1.611209e+003,4.688987e+001
1.612173e+003,4.345185e+001
1.613137e+003,4.037012e+001
1.614101e+003,3.738682e+001
1.615066e+003,3.519598e+001
1.616030e+003,3.365858e+001
1.616994e+003,3.150625e+001
1.617958e+003,2.907315e+001
1.618923e+003,2.701420e+001
1.619887e+003,2.523492e+001
1.620851e+003,2.348367e+001
1.621815e+003,2.198507e+001
1.622780e+003,2.091759e+001
1.623744e+003,1.989706e+001
1.624708e+003,1.861736e+001
1.625672e+003,1.765337e+001
1.626636e+003,1.737987e+001
1.627601e+003,1.670712e+001
1.628565e+003,1.556896e+001
1.629529e+003,1.480805e+001
1.630493e+003,1.419067e+001
1.631458e+003,1.354568e+001
1.632422e+003,1.275989e+001
1.633386e+003,1.161076e+001
1.634350e+003,1.079007e+001
1.635315e+003,1.056385e+001
1.636279e+003,1.061594e+001
1.637243e+003,1.059131e+001
1.638207e+003,1.019930e+001
1.639172e+003,9.357517e+000
1.640136e+003,8.367707e+000
1.641100e+003,7.387871e+000
1.642064e+003,7.064488e+000
1.643028e+003,7.073947e+000
1.643993e+003,7.123576e+000
1.644957e+003,6.986299e+000
1.645921e+003,6.434961e+000
1.646885e+003,6.153655e+000
1.647850e+003,6.138052e+000
1.648814e+003,5.876311e+000
1.649778e+003,5.418811e+000
1.650742e+003,5.048746e+000
1.651707e+003,4.880813e+000
1.652671e+003,4.933108e+000
1.653635e+003,4.868095e+000
1.654599e+003,4.184062e+000
1.655563e+003,3.574149e+000
1.656528e+003,3.815938e+000
1.657492e+003,4.146101e+000
1.658456e+003,4.275441e+000
1.659420e+003,4.264867e+000
1.660385e+003,4.148911e+000
1.661349e+003,3.975715e+000
1.662313e+003,3.815214e+000
1.663277e+003,3.716669e+000
1.664242e+003,3.693497e+000
1.665206e+003,3.763855e+000
1.666170e+003,3.899448e+000
1.667134e+003,3.983451e+000
1.668099e+003,3.678545e+000
1.669063e+003,3.004978e+000
1.670027e+003,2.819555e+000
1.670991e+003,3.320945e+000
1.671955e+003,3.288939e+000
1.672920e+003,2.799885e+000
1.673884e+003,2.483541e+000
1.674848e+003,2.340712e+000
1.675812e+003,2.426196e+000
1.676777e+003,2.519596e+000
1.677741e+003,2.548884e+000
1.678705e+003,2.640060e+000
1.679669e+003,2.724452e+000
1.680634e+003,2.371161e+000
1.681598e+003,1.926297e+000
1.682562e+003,2.169985e+000
1.683526e+003,2.760788e+000
1.684490e+003,2.892313e+000
1.685455e+003,2.671187e+000
1.686419e+003,2.417150e+000
1.687383e+003,2.325152e+000
1.688347e+003,2.602234e+000
1.689312e+003,2.524969e+000
1.690276e+003,1.569710e+000
1.691240e+003,1.996012e+000
1.692204e+003,3.007324e+000
1.693169e+003,2.371553e+000
1.694133e+003,1.495072e+000
1.695097e+003,1.624357e+000
1.696061e+003,2.134558e+000
1.697026e+003,2.646409e+000
1.697990e+003,2.643650e+000
1.698954e+003,2.173592e+000
1.699918e+003,1.942902e+000
1.700882e+003,2.171487e+000
1.701847e+003,2.586237e+000
1.702811e+003,2.881397e+000
1.703775e+003,2.206583e+000
1.704739e+003,1.165405e+000
1.705704e+003,1.055257e+000
1.706668e+003,1.445915e+000
1.707632e+003,2.389439e+000
1.708596e+003,2.711917e+000
1.709561e+003,2.247308e+000
1.710525e+003,1.615614e+000
1.711489e+003,1.059509e+000
1.712453e+003,9.694225e-001
1.713417e+003,1.087514e+000
1.714382e+003,1.168132e+000
1.715346e+003,1.099801e+000
1.716310e+003,8.947510e-001
1.717274e+003,8.935758e-001
1.718239e+003,1.262395e+000
1.719203e+003,1.704191e+000
1.720167e+003,1.964399e+000
1.721131e+003,1.538512e+000
1.722096e+003,4.766990e-001
1.723060e+003,4.476618e-001
1.724024e+003,9.619618e-001
1.724988e+003,1.080428e+000
1.725953e+003,1.213824e+000
1.726917e+003,1.738489e+000
1.727881e+003,1.815548e+000
1.728845e+003,1.422210e+000
1.729809e+003,1.568570e+000
1.730774e+003,1.880921e+000
1.731738e+003,1.221328e+000
1.732702e+003,3.298140e-001
1.733666e+003,3.503585e-001
1.734631e+003,9.712702e-001
1.735595e+003,1.496372e+000
1.736559e+003,1.724049e+000
1.737523e+003,1.586384e+000
1.738488e+003,1.665409e+000
1.739452e+003,2.193589e+000
1.740416e+003,2.158866e+000
1.741380e+003,1.596686e+000
1.742344e+003,1.601237e+000
1.743309e+003,1.774496e+000
1.744273e+003,1.439452e+000
1.745237e+003,1.401696e+000
1.746201e+003,2.078538e+000
1.747166e+003,2.958402e+000
1.748130e+003,3.733098e+000
1.749094e+003,3.563478e+000
1.750058e+003,2.881252e+000
1.751023e+003,2.445189e+000
1.751987e+003,2.526272e+000
1.752951e+003,3.169317e+000
1.753915e+003,3.442984e+000
1.754880e+003,2.527963e+000
1.755844e+003,1.698031e+000
1.756808e+003,1.893927e+000
1.757772e+003,2.412511e+000
1.758736e+003,3.052248e+000
1.759701e+003,3.661294e+000
1.760665e+003,4.148004e+000
1.761629e+003,4.100731e+000
1.762593e+003,3.728547e+000
1.763558e+003,2.992037e+000
1.764522e+003,2.506325e+000
1.765486e+003,2.501972e+000
1.766450e+003,2.094450e+000
1.767415e+003,1.416210e+000
1.768379e+003,1.140416e+000
1.769343e+003,1.325361e+000
1.770307e+003,2.108521e+000
1.771271e+003,2.482579e+000
1.772236e+003,1.557421e+000
1.773200e+003,6.707364e-001
1.774164e+003,9.744219e-001
1.775128e+003,1.236468e+000
1.776093e+003,8.056030e-001
1.777057e+003,4.511164e-001
1.778021e+003,3.880127e-001
1.778985e+003,1.078193e+000
1.779950e+003,1.971905e+000
1.780914e+003,1.698475e+000
1.781878e+003,1.346732e+000
1.782842e+003,1.625654e+000
1.783807e+003,1.830809e+000
1.784771e+003,1.864869e+000
1.785735e+003,1.833466e+000
1.786699e+003,1.669616e+000
1.787663e+003,9.854991e-001
1.788628e+003,4.476540e-001
1.789592e+003,9.701860e-001
1.790556e+003,1.555356e+000
1.791520e+003,1.379507e+000
1.792485e+003,9.928167e-001
1.793449e+003,8.284801e-001
1.794413e+003,9.063299e-001
1.795377e+003,1.118653e+000
1.796342e+003,9.776811e-001
1.797306e+003,5.450206e-001
1.798270e+003,3.553556e-001
1.799234e+003,4.493330e-001
1.800198e+003,1.050350e+000
1.801163e+003,1.322854e+000
1.802127e+003,6.139482e-001
1.803091e+003,1.836182e-001
1.804055e+003,2.143888e-002
1.805020e+003,-9.959828e-003
1.805984e+003,2.980957e-002
1.806948e+003,1.328502e-001
1.807912e+003,2.484630e-001
1.808877e+003,3.687245e-001
1.809841e+003,2.199419e-001
1.810805e+003,-1.384888e-001
1.811769e+003,-6.980757e-002
1.812734e+003,3.007469e-001
1.813698e+003,5.981778e-002
1.814662e+003,-5.085382e-001
1.815626e+003,-3.449729e-001
1.816590e+003,8.164173e-002
1.817555e+003,1.826616e-003
1.818519e+003,-3.704390e-002
1.819483e+003,3.794289e-001
1.820447e+003,4.690230e-001
1.821412e+003,-3.332631e-002
1.822376e+003,1.826238e-001
1.823340e+003,6.899458e-001
1.824304e+003,2.124789e-001
1.825269e+003,-3.091297e-001
1.826233e+003,-3.241466e-001
1.827197e+003,-1.673096e-001
1.828161e+003,7.534291e-002
1.829126e+003,1.210560e-001
1.830090e+003,1.544633e-002
1.831054e+003,-1.280307e-001
1.832018e+003,-1.567927e-001
1.832983e+003,2.167358e-001
1.833947e+003,4.133090e-001
1.834911e+003,-4.384322e-002
1.835875e+003,-8.397428e-001
1.836839e+003,-1.464247e+000
1.837804e+003,-1.104129e+000
1.838768e+003,1.092307e-001
1.839732e+003,2.317971e-001
1.840696e+003,-5.040494e-001
1.841661e+003,-4.212591e-001
1.842625e+003,-3.312211e-002
1.843589e+003,7.786421e-002
1.844553e+003,1.423950e-001
1.845518e+003,3.047152e-001
1.846482e+003,1.236883e-001
1.847446e+003,-2.262518e-001
1.848410e+003,2.644576e-001
1.849375e+003,8.700295e-001
1.850339e+003,7.999123e-001
1.851303e+003,5.877208e-001
1.852267e+003,5.214921e-001
1.853231e+003,9.829213e-002
1.854196e+003,-5.311690e-001
1.855160e+003,-4.124578e-001
1.856124e+003,1.494940e-001
1.857088e+003,2.809137e-001
1.858053e+003,4.817227e-002
1.859017e+003,-1.756425e-001
1.859981e+003,-1.966642e-001
1.860945e+003,-2.034135e-003
1.861910e+003,-2.221990e-001
1.862874e+003,-9.957486e-001
1.863838e+003,-1.095726e+000
1.864802e+003,-3.570779e-001
1.865766e+003,1.613636e-001
1.866731e+003,3.204102e-001
1.867695e+003,-2.432329e-001
1.868659e+003,-7.336481e-001
1.869623e+003,-6.270774e-001
1.870588e+003,-3.488947e-001
1.871552e+003,4.414395e-002
1.872516e+003,1.047741e-001
1.873480e+003,-5.090221e-002
1.874445e+003,-3.089100e-001
1.875409e+003,-5.537398e-001
1.876373e+003,-7.949796e-001
1.877337e+003,-7.208818e-001
1.878302e+003,-4.145219e-001
1.879266e+003,-7.837890e-001
1.880230e+003,-1.415361e+000
1.881194e+003,-1.015685e+000
1.882158e+003,-3.849720e-001
1.883123e+003,-8.321933e-001
1.884087e+003,-1.342618e+000
1.885051e+003,-8.903475e-001
1.886015e+003,-2.631558e-001
1.886980e+003,6.306929e-002
1.887944e+003,4.692305e-001
1.888908e+003,8.849187e-001
1.889872e+003,4.631303e-001
1.890837e+003,-3.250743e-001
1.891801e+003,-3.943737e-001
1.892765e+003,-3.156272e-001
1.893729e+003,-5.812633e-001
1.894693e+003,-5.410622e-001
1.895658e+003,6.064897e-002
1.896622e+003,-9.306197e-002
1.897586e+003,-5.752575e-001
1.898550e+003,-5.166060e-001
1.899515e+003,-2.610651e-001
1.900479e+003,8.779962e-002
1.901443e+003,2.975619e-001
1.902407e+003,3.092629e-001
1.903372e+003,-1.528908e-001
1.904336e+003,-7.612759e-001
1.905300e+003,-9.421542e-001
1.906264e+003,-7.955089e-001
1.907229e+003,-5.327725e-001
1.908193e+003,4.377885e-003
1.909157e+003,7.403786e-001
1.910121e+003,8.017489e-001
1.911085e+003,1.491078e-001
1.912050e+003,-2.521718e-001
1.913014e+003,-2.852195e-001
1.913978e+003,-4.391235e-001
1.914942e+003,-4.108432e-001
1.915907e+003,2.270386e-001
1.916871e+003,6.350641e-001
1.917835e+003,2.022184e-001
1.918799e+003,-1.988781e-001
1.919764e+003,-2.820401e-001
1.920728e+003,-1.343650e-001
1.921692e+003,1.987970e-002
1.922656e+003,-5.617920e-001
1.923620e+003,-1.031161e+000
1.924585e+003,-4.839056e-001
1.925549e+003,-9.095570e-002
1.926513e+003,-7.027366e-002
1.927477e+003,-2.967341e-001
1.928442e+003,-5.030773e-001
1.929406e+003,1.081099e-001
1.930370e+003,5.960549e-001
1.931334e+003,1.046087e-001
1.932299e+003,-4.272450e-001
1.933263e+003,-6.802179e-001
1.934227e+003,-6.236772e-001
1.935191e+003,-3.404730e-001
1.936156e+003,1.578846e-001
1.937120e+003,6.198897e-001
1.938084e+003,8.620905e-001
1.939048e+003,6.258867e-001
1.940012e+003,-2.327770e-002
1.940977e+003,-1.472357e-001
1.941941e+003,3.669323e-001
1.942905e+003,4.705333e-001
1.943869e+003,2.943448e-002
1.944834e+003,-4.136841e-001
1.945798e+003,-5.328003e-001
1.946762e+003,-4.699041e-002
1.947726e+003,2.298939e-001
1.948691e+003,-2.176758e-001
1.949655e+003,-2.943848e-001
1.950619e+003,2.683472e-001
1.951583e+003,3.763417e-001
1.952547e+003,2.621360e-001
1.953512e+003,5.111051e-001
1.954476e+003,7.665449e-001
1.955440e+003,7.918313e-001
1.956404e+003,6.088479e-001
1.957369e+003,1.711870e-001
1.958333e+003,1.130260e-001
1.959297e+003,2.590598e-001
1.960261e+003,4.171908e-001
1.961226e+003,4.549638e-001
1.962190e+003,1.263428e-001
1.963154e+003,2.034102e-001
1.964118e+003,6.879261e-001
1.965083e+003,2.754705e-001
1.966047e+003,-4.535112e-001
1.967011e+003,-2.374168e-001
1.967975e+003,2.575761e-001
1.968939e+003,3.844871e-001
1.969904e+003,3.459362e-001
1.970868e+003,3.236506e-001
1.971832e+003,3.572809e-001
1.972796e+003,5.053545e-001
1.973761e+003,9.838656e-001
1.974725e+003,1.330714e+000
1.975689e+003,9.457653e-001
1.976653e+003,1.886563e-001
1.977618e+003,-3.309060e-001
1.978582e+003,1.915949e-002
1.979546e+003,1.080299e+000
1.980510e+003,1.273482e+000
1.981474e+003,5.787032e-001
1.982439e+003,2.804477e-001
1.983403e+003,2.556530e-001
1.984367e+003,3.059193e-001
1.985331e+003,3.356334e-001
1.986296e+003,2.874234e-001
1.987260e+003,1.148360e-001
1.988224e+003,-5.736750e-002
1.989188e+003,6.519819e-001
1.990153e+003,1.344000e+000
1.991117e+003,6.043779e-001
1.992081e+003,4.053844e-003
1.993045e+003,4.320113e-001
1.994010e+003,2.590099e-001
1.994974e+003,-3.469760e-001
1.995938e+003,3.511785e-001
1.996902e+003,1.097923e+000
1.997866e+003,3.349232e-001
1.998831e+003,-2.820590e-001
1.999795e+003,-1.369818e-001
2.000759e+003,9.237948e-002
2.001723e+003,2.364713e-001
2.002688e+003,-7.152210e-003
2.003652e+003,-1.901167e-001
2.004616e+003,2.612571e-001
2.005580e+003,7.069425e-001
2.006545e+003,8.422729e-001
2.007509e+003,1.004125e+000
2.008473e+003,1.217198e+000
2.009437e+003,1.317698e+000
2.010401e+003,1.174945e+000
2.011366e+003,5.661743e-001
2.012330e+003,-2.284601e-002
2.013294e+003,-1.799394e-001
2.014258e+003,1.447221e-001
2.015223e+003,7.094926e-001
2.016187e+003,9.865889e-001
2.017151e+003,1.014724e+000
2.018115e+003,1.178133e+000
2.019080e+003,1.105009e+000
2.020044e+003,4.694891e-001
2.021008e+003,2.179266e-001
2.021972e+003,7.087580e-001
2.022937e+003,7.000677e-001
2.023901e+003,1.355913e-001
2.024865e+003,2.340443e-001
2.025829e+003,8.032637e-001
2.026793e+003,1.375140e+000
2.027758e+003,1.378589e+000
2.028722e+003,4.837269e-001
2.029686e+003,8.109020e-002
2.030650e+003,3.862405e-001
2.031615e+003,6.362871e-001
2.032579e+003,7.238559e-001
2.033543e+003,4.107777e-001
2.034507e+003,2.302646e-001
2.035472e+003,5.529819e-001
2.036436e+003,6.908336e-001
2.037400e+003,5.887662e-001
2.038364e+003,7.175959e-002
2.039328e+003,-2.649381e-001
2.040293e+003,6.844971e-001
2.041257e+003,1.332296e+000
2.042221e+003,1.027788e+000
2.043185e+003,6.170998e-001
2.044150e+003,2.288319e-001
2.045114e+003,1.662121e-001
2.046078e+003,1.954113e-001
2.047042e+003,1.552346e-001
2.048007e+003,-9.392755e-002
2.048971e+003,-6.218550e-001
2.049935e+003,-3.810491e-001
2.050899e+003,3.603349e-001
2.051864e+003,7.420931e-001
2.052828e+003,8.378906e-001
2.053792e+003,8.824196e-001
2.054756e+003,6.827959e-001
2.055720e+003,2.084939e-001
2.056685e+003,-1.890647e-001
2.057649e+003,-4.406783e-001
2.058613e+003,-6.548517e-001
2.059577e+003,-8.164629e-001
2.060542e+003,-9.303312e-001
2.061506e+003,-5.973045e-001
2.062470e+003,2.154941e-001
2.063434e+003,9.297308e-001
2.064399e+003,1.185793e+000
2.065363e+003,6.598588e-001
2.066327e+003,5.918746e-002
2.067291e+003,2.672541e-001
2.068256e+003,5.280718e-001
2.069220e+003,2.348877e-001
2.070184e+003,-3.049439e-001
2.071148e+003,-7.122903e-001
2.072113e+003,-3.601285e-001
2.073077e+003,2.063377e-001
2.074041e+003,-1.584084e-001
2.075005e+003,-6.370306e-001
2.075969e+003,-5.287353e-001
2.076934e+003,-1.947865e-001
2.077898e+003,6.108509e-002
2.078862e+003,-2.560780e-001
2.079826e+003,-6.229825e-001
2.080791e+003,4.582964e-002
2.081755e+003,2.757835e-001
2.082719e+003,-9.763983e-001
2.083683e+003,-1.374397e+000
2.084647e+003,-4.221702e-001
2.085612e+003,-5.208585e-001
2.086576e+003,-1.196649e+000
2.087540e+003,-1.244957e+000
2.088504e+003,-7.476052e-001
2.089469e+003,3.034324e-001
2.090433e+003,3.733987e-001
2.091397e+003,-7.659280e-001
2.092361e+003,-5.689808e-001
2.093326e+003,2.249090e-001
2.094290e+003,4.638849e-001
2.095254e+003,3.256148e-001
2.096218e+003,-2.634322e-001
2.097183e+003,-3.965121e-001
2.098147e+003,-7.424650e-002
2.099111e+003,5.423917e-002
2.100075e+003,7.789972e-002
2.101040e+003,1.475431e-001
2.102004e+003,5.715443e-002
2.102968e+003,-2.990589e-001
2.103932e+003,-9.594072e-001
2.104896e+003,-1.588088e+000
2.105861e+003,-5.080078e-001
2.106825e+003,5.178556e-001
2.107789e+003,-4.038963e-001
2.108753e+003,-6.526611e-001
2.109718e+003,3.977761e-001
2.110682e+003,7.859952e-001
2.111646e+003,6.062733e-001
2.112610e+003,6.652721e-002
2.113574e+003,-4.350320e-001
2.114539e+003,-6.865246e-001
2.115503e+003,-8.300015e-001
2.116467e+003,-8.567805e-001
2.117431e+003,-2.831443e-001
2.118396e+003,3.367709e-001
2.119360e+003,1.632768e-001
2.120324e+003,-2.226718e-001
2.121288e+003,-5.398893e-001
2.122253e+003,-6.622381e-001
2.123217e+003,-6.237260e-001
2.124181e+003,-6.971813e-001
2.125145e+003,-5.877241e-001
2.126110e+003,4.168646e-001
2.127074e+003,9.002397e-001
2.128038e+003,2.699674e-001
2.129002e+003,-4.316861e-001
2.129967e+003,-7.700972e-001
2.130931e+003,-2.995228e-001
2.131895e+003,1.712047e-001
2.132859e+003,-3.077959e-001
2.133823e+003,-7.341442e-001
2.134788e+003,-6.782926e-001
2.135752e+003,-4.567660e-001
2.136716e+003,-2.382213e-001
2.137680e+003,-4.330944e-002
2.138645e+003,3.162620e-002
2.139609e+003,-9.833541e-002
2.140573e+003,-2.061579e-001
2.141537e+003,-2.036976e-001
2.142501e+003,-1.115734e-001
2.143466e+003,-8.936324e-002
2.144430e+003,-4.543668e-001
2.145394e+003,-7.176525e-001
2.146358e+003,-5.141058e-001
2.147323e+003,-1.026112e-001
2.148287e+003,2.128407e-001
2.149251e+003,9.752974e-002
2.150215e+003,-2.351884e-001
2.151180e+003,-4.217307e-001
2.152144e+003,-5.032615e-001
2.153108e+003,-5.473400e-001
2.154072e+003,-4.171997e-001
2.155037e+003,-2.496316e-001
2.156001e+003,-5.303234e-001
2.156965e+003,-8.132890e-001
2.157929e+003,-4.770730e-001
2.158894e+003,-1.033725e-001
2.159858e+003,-2.018721e-001
2.160822e+003,-1.059124e+000
2.161786e+003,-1.974662e+000
2.162750e+003,-1.404827e+000
2.163715e+003,-2.548639e-001
2.164679e+003,1.349598e-001
2.165643e+003,8.024126e-002
2.166607e+003,-5.123402e-002
2.167572e+003,-2.539062e-003
2.168536e+003,1.262618e-001
2.169500e+003,2.803400e-002
2.170464e+003,-7.376598e-002
2.171428e+003,-4.303534e-003
2.172393e+003,-2.043413e-001
2.173357e+003,-6.798406e-001
2.174321e+003,-9.115390e-001
2.175285e+003,-8.507735e-001
2.176250e+003,-6.537320e-001
2.177214e+003,-2.870073e-001
2.178178e+003,1.167580e-001
2.179142e+003,1.057828e-001
2.180107e+003,-3.353271e-001
2.181071e+003,-9.032437e-001
2.182035e+003,-1.305916e+000
2.182999e+003,-1.279670e+000
2.183964e+003,-1.053061e+000
2.184928e+003,-8.201938e-001
2.185892e+003,-6.169123e-001
2.186856e+003,-3.954412e-001
2.187821e+003,-4.861617e-002
2.188785e+003,6.999068e-002
2.189749e+003,-2.032315e-001
2.190713e+003,1.810380e-001
2.191677e+003,1.089529e+000
2.192642e+003,5.009754e-001
2.193606e+003,-6.144853e-001
2.194570e+003,1.990745e-002
2.195534e+003,1.177875e+000
2.196499e+003,1.563525e+000
2.197463e+003,7.947743e-001
2.198427e+003,-3.489091e-001
2.199391e+003,1.860440e-001
2.200355e+003,1.035383e+000
2.201320e+003,2.036854e-001
2.202284e+003,-6.793890e-001
2.203248e+003,-6.545954e-001
2.204212e+003,-1.307551e-001
2.205177e+003,3.897084e-001
2.206141e+003,3.137163e-001
2.207105e+003,9.053178e-003
2.208069e+003,-7.089178e-002
2.209034e+003,1.047741e-001
2.209998e+003,3.482255e-001
2.210962e+003,2.066406e-001
2.211926e+003,-2.404452e-001
2.212891e+003,-6.252908e-001
2.213855e+003,-4.650790e-001
2.214819e+003,2.397994e-001
2.215783e+003,6.686268e-001
2.216748e+003,5.338889e-001
2.217712e+003,-1.504683e-001
2.218676e+003,-6.176680e-001
2.219640e+003,-2.259388e-001
2.220604e+003,4.201394e-001
2.221569e+003,7.550326e-001
2.222533e+003,1.694436e-001
2.223497e+003,-6.280229e-001
2.224461e+003,-5.155274e-001
2.225426e+003,-1.790339e-001
2.226390e+003,-1.664351e-001
2.227354e+003,-2.701649e-001
2.228318e+003,-3.203613e-001
2.229282e+003,-1.560802e-001
2.230247e+003,5.212513e-002
2.231211e+003,1.068837e-001
2.232175e+003,1.196955e-001
2.233139e+003,9.611817e-002
2.234104e+003,-1.525502e-001
2.235068e+003,-4.251343e-001
2.236032e+003,-4.130881e-001
2.236996e+003,-2.002663e-001
2.237961e+003,-6.445312e-003
2.238925e+003,-2.711093e-001
2.239889e+003,-6.948808e-001
2.240853e+003,-4.392478e-001
2.241818e+003,5.418923e-002
2.242782e+003,2.039373e-001
2.243746e+003,-1.541082e-001
2.244710e+003,-7.740057e-001
2.245675e+003,-1.113497e+000
2.246639e+003,-1.061314e+000
2.247603e+003,-5.774125e-001
2.248567e+003,-5.945246e-001
2.249531e+003,-1.254304e+000
2.250496e+003,-8.001254e-001
2.251460e+003,2.428511e-001
2.252424e+003,3.329301e-002
2.253388e+003,-6.628041e-001
2.254353e+003,-9.712447e-001
2.255317e+003,-9.457830e-001
2.256281e+003,-6.692250e-001
2.257245e+003,1.223777e-001
2.258209e+003,6.907337e-001
2.259174e+003,-6.997847e-002
2.260138e+003,-6.810558e-001
2.261102e+003,-5.171886e-001
2.262066e+003,-2.595326e-001
2.263031e+003,-1.515780e-001
2.263995e+003,-1.876720e-001
2.264959e+003,-4.227195e-001
2.265923e+003,-9.499756e-001
2.266888e+003,-1.077183e+000
2.267852e+003,-7.545599e-001
2.268816e+003,-1.811668e-001
2.269780e+003,1.045266e-001
2.270745e+003,-6.832930e-001
2.271709e+003,-1.029181e+000
2.272673e+003,-4.878440e-001
2.273637e+003,1.402721e-001
2.274602e+003,5.277244e-001
2.275566e+003,2.120250e-001
2.276530e+003,7.709406e-002
2.277494e+003,8.632879e-001
2.278458e+003,1.201216e+000
2.279423e+003,9.968750e-001
2.280387e+003,6.445579e-001
2.281351e+003,2.334706e-001
2.282315e+003,-4.097312e-001
2.283280e+003,-5.298795e-001
2.284244e+003,9.336825e-002
2.285208e+003,-3.506991e-001
2.286172e+003,-1.164480e+000
2.287136e+003,-9.419478e-001
2.288101e+003,-3.868408e-001
2.289065e+003,4.160511e-001
2.290029e+003,4.700817e-001
2.290993e+003,-8.178711e-002
2.291958e+003,-1.362760e-001
2.292922e+003,5.842396e-002
2.293886e+003,5.031294e-001
2.294850e+003,4.551159e-001
2.295815e+003,-3.625588e-001
2.296779e+003,-6.668757e-001
2.297743e+003,-5.601385e-001
2.298707e+003,-1.230713e-001
2.299672e+003,1.668302e-001
2.300636e+003,3.469016e-002
2.301600e+003,-5.466087e-002
2.302564e+003,-6.525213e-002
2.303529e+003,-5.843728e-002
2.304493e+003,-2.347312e-001
2.305457e+003,-8.002830e-001
2.306421e+003,-1.084050e+000
2.307385e+003,-8.768810e-001
2.308350e+003,-3.206576e-001
2.309314e+003,2.068315e-001
2.310278e+003,1.123213e-001
2.311242e+003,-5.328180e-001
2.312207e+003,-1.420978e+000
2.313171e+003,-6.409025e-001
2.314135e+003,9.720093e-001
2.315099e+003,6.078358e-001
2.316063e+003,-2.036910e-001
2.317028e+003,-2.544422e-001
2.317992e+003,1.019842e-002
2.318956e+003,2.179876e-001
2.319921e+003,-1.580966e-001
2.320885e+003,-5.782204e-001
2.321849e+003,-4.634821e-001
2.322813e+003,-1.977151e-001
2.323778e+003,1.085316e-003
2.324742e+003,1.530384e-001
2.325706e+003,7.128018e-002
2.326670e+003,-3.541726e-001
2.327635e+003,-4.919855e-001
2.328599e+003,-1.664151e-001
2.329563e+003,2.807451e-001
2.330527e+003,3.798462e-001
2.331491e+003,-3.228338e-001
2.332456e+003,-4.974110e-001
2.333420e+003,2.919445e-001
2.334384e+003,8.452393e-001
2.335348e+003,7.856334e-001
2.336313e+003,-1.672585e-001
2.337277e+003,-5.671853e-001
2.338241e+003,2.517412e-001
2.339205e+003,5.902765e-001
2.340169e+003,2.220215e-001
2.341134e+003,-4.767800e-001
2.342098e+003,-8.642989e-001
2.343062e+003,-4.594871e-001
2.344026e+003,5.865479e-002
2.344991e+003,4.613803e-001
2.345955e+003,8.365423e-001
2.346919e+003,7.518210e-001
2.347883e+003,-9.528809e-001
2.348848e+003,-1.365781e+000
2.349812e+003,3.442882e-001
2.350776e+003,1.010338e+000
2.351740e+003,8.085283e-001
2.352705e+003,1.209939e-001
2.353669e+003,-3.302257e-001
2.354633e+003,-1.455744e-001
2.355597e+003,1.537653e-001
2.356562e+003,4.629627e-001
2.357526e+003,3.895430e-001
2.358490e+003,2.954656e-001
2.359454e+003,5.350397e-001
2.360418e+003,2.545488e-001
2.361383e+003,-6.428522e-001
2.362347e+003,-5.526522e-001
2.363311e+003,3.249290e-002
2.364275e+003,4.790361e-001
2.365240e+003,6.392434e-001
2.366204e+003,4.658225e-001
2.367168e+003,1.981745e-001
2.368132e+003,-2.108487e-005
2.369096e+003,1.215021e-001
2.370061e+003,3.164972e-001
2.371025e+003,4.507424e-001
2.371989e+003,6.911976e-001
2.372953e+003,9.752209e-001
2.373918e+003,1.046825e+000
2.374882e+003,8.073387e-001
2.375846e+003,3.511186e-001
2.376810e+003,2.332475e-001
2.377775e+003,2.115123e-001
2.378739e+003,-5.063232e-001
2.379703e+003,-9.251909e-001
2.380667e+003,-4.331976e-001
2.381632e+003,-2.460427e-001
2.382596e+003,-4.594604e-001
2.383560e+003,-4.696600e-001
2.384524e+003,-1.654264e-001
2.385489e+003,4.074762e-001
2.386453e+003,9.647139e-001
2.387417e+003,1.233408e+000
2.388381e+003,6.263605e-001
2.389345e+003,1.125877e-001
2.390310e+003,7.648149e-001
2.391274e+003,1.141910e+000
2.392238e+003,9.894809e-001
2.393202e+003,7.079290e-001
2.394167e+003,5.843606e-001
2.395131e+003,1.074465e+000
2.396095e+003,1.224447e+000
2.397059e+003,7.331987e-001
2.398023e+003,8.319425e-002
2.398988e+003,-3.347678e-001
2.399952e+003,3.116677e-001
2.400916e+003,7.478626e-001
2.401880e+003,2.948264e-001
2.402845e+003,6.255193e-001
2.403809e+003,1.435830e+000
2.404773e+003,1.474480e+000
2.405737e+003,1.122921e+000
2.406702e+003,6.573619e-001
2.407666e+003,5.971658e-001
2.408630e+003,9.702459e-001
2.409594e+003,1.257921e+000
2.410559e+003,1.467709e+000
2.411523e+003,1.591261e+000
2.412487e+003,1.536455e+000
2.413451e+003,1.324007e+000
2.414416e+003,1.100009e+000
2.415380e+003,8.501287e-001
2.416344e+003,6.744152e-001
2.417308e+003,1.183167e+000
2.418272e+003,2.032584e+000
2.419237e+003,1.943864e+000
2.420201e+003,1.596339e+000
2.421165e+003,1.765392e+000
2.422129e+003,1.830022e+000
2.423094e+003,1.650391e+000
2.424058e+003,1.340897e+000
2.425022e+003,1.426558e+000
2.425986e+003,2.528351e+000
2.426950e+003,3.220403e+000
2.427915e+003,3.221273e+000
2.428879e+003,2.822763e+000
2.429843e+003,2.606771e+000
2.430807e+003,3.184631e+000
2.431772e+003,3.880107e+000
2.432736e+003,4.529839e+000
2.433700e+003,4.479988e+000
2.434664e+003,4.430672e+000
2.435629e+003,5.567543e+000
2.436593e+003,6.559033e+000
2.437557e+003,6.927385e+000
2.438521e+003,6.877721e+000
2.439486e+003,7.004694e+000
2.440450e+003,8.566517e+000
2.441414e+003,9.890887e+000
2.442378e+003,1.007689e+001
2.443343e+003,1.025073e+001
2.444307e+003,1.064929e+001
2.445271e+003,1.133004e+001
2.446235e+003,1.233394e+001
2.447199e+003,1.345157e+001
2.448164e+003,1.372168e+001
2.449128e+003,1.354875e+001
2.450092e+003,1.412831e+001
2.451056e+003,1.486122e+001
2.452021e+003,1.506345e+001
2.452985e+003,1.421167e+001
2.453949e+003,1.313440e+001
2.454913e+003,1.328900e+001
2.455877e+003,1.372053e+001
2.456842e+003,1.378372e+001
2.457806e+003,1.369796e+001
2.458770e+003,1.339136e+001
2.459734e+003,1.219622e+001
2.460699e+003,1.171868e+001
2.461663e+003,1.308828e+001
2.462627e+003,1.323779e+001
2.463591e+003,1.240844e+001
2.464556e+003,1.189801e+001
2.465520e+003,1.180764e+001
2.466484e+003,1.233109e+001
2.467448e+003,1.251867e+001
2.468413e+003,1.233821e+001
2.469377e+003,1.198016e+001
2.470341e+003,1.138777e+001
2.471305e+003,1.051662e+001
2.472270e+003,1.073583e+001
2.473234e+003,1.190489e+001
2.474198e+003,1.142121e+001
2.475162e+003,1.045761e+001
2.476126e+003,1.027060e+001
2.477091e+003,1.044339e+001
2.478055e+003,1.049124e+001
2.479019e+003,9.726680e+000
2.479983e+003,8.912609e+000
2.480948e+003,8.787638e+000
2.481912e+003,8.995363e+000
2.482876e+003,9.200498e+000
2.483840e+003,9.117136e+000
2.484804e+003,9.094143e+000
2.485769e+003,9.344496e+000
2.486733e+003,8.965856e+000
2.487697e+003,8.255238e+000
2.488661e+003,8.315916e+000
2.489626e+003,8.427980e+000
2.490590e+003,8.125632e+000
2.491554e+003,7.376000e+000
2.492518e+003,6.458380e+000
2.493483e+003,6.643021e+000
2.494447e+003,6.743228e+000
2.495411e+003,5.821793e+000
2.496375e+003,5.587958e+000
2.497340e+003,6.087460e+000
2.498304e+003,5.827791e+000
2.499268e+003,5.163135e+000
2.500232e+003,4.524251e+000
2.501197e+003,4.592433e+000
2.502161e+003,5.362045e+000
2.503125e+003,6.003264e+000
2.504089e+003,5.834221e+000
2.505053e+003,4.727367e+000
2.506018e+003,4.341627e+000
2.506982e+003,4.760135e+000
2.507946e+003,4.859688e+000
2.508910e+003,5.356639e+000
2.509875e+003,6.516173e+000
2.510839e+003,6.504457e+000
2.511803e+003,5.594366e+000
2.512767e+003,4.882190e+000
2.513731e+003,4.447527e+000
2.514696e+003,4.223991e+000
2.515660e+003,4.427257e+000
2.516624e+003,4.761745e+000
2.517588e+003,4.485278e+000
2.518553e+003,4.036900e+000
2.519517e+003,3.433266e+000
2.520481e+003,3.980791e+000
2.521445e+003,5.178040e+000
2.522410e+003,5.140382e+000
2.523374e+003,4.866944e+000
2.524338e+003,4.999926e+000
2.525302e+003,4.890878e+000
2.526267e+003,4.483401e+000
2.527231e+003,4.148268e+000
2.528195e+003,4.258579e+000
2.529159e+003,4.725210e+000
2.530124e+003,4.214834e+000
2.531088e+003,3.503987e+000
2.532052e+003,4.283392e+000
2.533016e+003,4.702820e+000
2.533980e+003,3.935245e+000
2.534945e+003,2.749558e+000
2.535909e+003,2.285602e+000
2.536873e+003,4.161052e+000
2.537837e+003,5.241329e+000
2.538802e+003,4.682533e+000
2.539766e+003,4.447199e+000
2.540730e+003,4.509385e+000
2.541694e+003,4.672078e+000
2.542658e+003,4.605392e+000
2.543623e+003,4.183913e+000
2.544587e+003,3.831885e+000
2.545551e+003,3.623262e+000
2.546515e+003,3.661609e+000
2.547480e+003,3.915947e+000
2.548444e+003,4.294671e+000
2.549408e+003,4.397728e+000
2.550372e+003,4.416883e+000
2.551337e+003,4.652354e+000
2.552301e+003,4.883607e+000
2.553265e+003,4.811909e+000
2.554229e+003,3.757174e+000
2.555194e+003,3.036587e+000
2.556158e+003,3.730274e+000
2.557122e+003,4.340481e+000
2.558086e+003,4.531156e+000
2.559051e+003,4.878086e+000
2.560015e+003,5.111663e+000
2.560979e+003,4.812968e+000
2.561943e+003,5.089351e+000
2.562907e+003,5.689302e+000
2.563872e+003,5.176551e+000
2.564836e+003,4.706309e+000
2.565800e+003,4.977111e+000
2.566764e+003,5.361681e+000
2.567729e+003,5.706637e+000
2.568693e+003,5.718924e+000
2.569657e+003,5.437706e+000
2.570621e+003,5.013598e+000
2.571585e+003,5.053457e+000
2.572550e+003,5.214177e+000
2.573514e+003,4.643383e+000
2.574478e+003,4.162445e+000
2.575442e+003,4.453387e+000
2.576407e+003,5.985194e+000
2.577371e+003,7.443390e+000
2.578335e+003,7.221913e+000
2.579299e+003,6.297427e+000
2.580264e+003,5.399374e+000
2.581228e+003,5.692217e+000
2.582192e+003,6.446760e+000
2.583156e+003,7.017785e+000
2.584121e+003,6.993171e+000
2.585085e+003,6.380569e+000
2.586049e+003,6.593317e+000
2.587013e+003,7.053331e+000
2.587978e+003,7.150817e+000
2.588942e+003,7.145823e+000
2.589906e+003,7.228952e+000
2.590870e+003,7.777670e+000
2.591834e+003,8.153645e+000
2.592799e+003,7.858407e+000
2.593763e+003,7.816349e+000
2.594727e+003,8.063208e+000
2.595691e+003,7.939473e+000
2.596656e+003,7.862784e+000
2.597620e+003,8.137735e+000
2.598584e+003,8.704088e+000
2.599548e+003,9.254537e+000
2.600512e+003,9.332726e+000
2.601477e+003,9.539497e+000
2.602441e+003,1.015915e+001
2.603405e+003,1.025272e+001
2.604369e+003,9.870197e+000
2.605334e+003,8.833092e+000
2.606298e+003,9.118794e+000
2.607262e+003,1.126765e+001
2.608226e+003,1.150520e+001
2.609191e+003,1.075175e+001
2.610155e+003,1.078877e+001
2.611119e+003,1.152037e+001
2.612083e+003,1.245415e+001
2.613048e+003,1.248801e+001
2.614012e+003,1.222951e+001
2.614976e+003,1.238310e+001
2.615940e+003,1.257172e+001
2.616905e+003,1.289074e+001
2.617869e+003,1.405398e+001
2.618833e+003,1.461169e+001
2.619797e+003,1.367543e+001
2.620761e+003,1.406216e+001
2.621726e+003,1.528782e+001
2.622690e+003,1.600343e+001
2.623654e+003,1.620411e+001
2.624618e+003,1.581268e+001
2.625583e+003,1.651528e+001
2.626547e+003,1.761467e+001
2.627511e+003,1.767968e+001
2.628475e+003,1.724287e+001
2.629439e+003,1.694625e+001
2.630404e+003,1.804609e+001
2.631368e+003,1.932329e+001
2.632332e+003,1.942749e+001
2.633296e+003,2.011097e+001
2.634261e+003,2.141398e+001
2.635225e+003,2.215116e+001
2.636189e+003,2.262128e+001
2.637153e+003,2.314204e+001
2.638118e+003,2.338466e+001
2.639082e+003,2.351019e+001
2.640046e+003,2.387636e+001
2.641010e+003,2.460380e+001
2.641975e+003,2.582833e+001
2.642939e+003,2.611279e+001
2.643903e+003,2.602367e+001
2.644867e+003,2.682114e+001
2.645832e+003,2.787743e+001
2.646796e+003,2.884274e+001
2.647760e+003,2.976537e+001
2.648724e+003,3.062129e+001
2.649688e+003,3.136828e+001
2.650653e+003,3.198621e+001
2.651617e+003,3.265022e+001
2.652581e+003,3.368003e+001
2.653545e+003,3.474954e+001
2.654510e+003,3.557935e+001
2.655474e+003,3.716268e+001
2.656438e+003,3.922833e+001
2.657402e+003,4.108768e+001
2.658367e+003,4.256651e+001
2.659331e+003,4.353242e+001
2.660295e+003,4.496138e+001
2.661259e+003,4.670604e+001
2.662224e+003,4.831501e+001
2.663188e+003,4.963647e+001
2.664152e+003,5.089723e+001
2.665116e+003,5.296608e+001
2.666081e+003,5.542228e+001
2.667045e+003,5.762333e+001
2.668009e+003,5.940422e+001
2.668973e+003,6.110247e+001
2.669938e+003,6.331430e+001
2.670902e+003,6.568381e+001
2.671866e+003,6.801144e+001
2.672830e+003,7.036204e+001
2.673794e+003,7.273317e+001
2.674759e+003,7.509786e+001
2.675723e+003,7.753861e+001
2.676687e+003,8.004519e+001
2.677651e+003,8.169558e+001
2.678615e+003,8.300507e+001
2.679580e+003,8.480894e+001
2.680544e+003,8.696423e+001
2.681508e+003,8.908301e+001
2.682472e+003,9.047859e+001
2.683437e+003,9.140511e+001
2.684401e+003,9.222152e+001
2.685365e+003,9.352171e+001
2.686329e+003,9.524473e+001
2.687294e+003,9.727991e+001
2.688258e+003,9.884540e+001
2.689222e+003,9.958826e+001
2.690186e+003,1.006838e+002
2.691151e+003,1.019953e+002
2.692115e+003,1.033593e+002
2.693079e+003,1.041440e+002
2.694043e+003,1.044097e+002
2.695008e+003,1.052500e+002
2.695972e+003,1.064728e+002
2.696936e+003,1.077017e+002
2.697900e+003,1.085395e+002
2.698865e+003,1.093898e+002
2.699829e+003,1.113186e+002
2.700793e+003,1.124407e+002
2.701757e+003,1.124302e+002
2.702721e+003,1.141857e+002
2.703686e+003,1.166474e+002
2.704650e+003,1.181870e+002
2.705614e+003,1.195276e+002
2.706578e+003,1.209638e+002
2.707542e+003,1.240079e+002
2.708507e+003,1.276462e+002
2.709471e+003,1.308337e+002
2.710435e+003,1.334198e+002
2.711399e+003,1.363701e+002
2.712364e+003,1.413759e+002
2.713328e+003,1.460771e+002
2.714292e+003,1.496771e+002
2.715256e+003,1.544503e+002
2.716221e+003,1.596270e+002
2.717185e+003,1.639420e+002
2.718149e+003,1.684976e+002
2.719113e+003,1.735389e+002
2.720078e+003,1.788836e+002
2.721042e+003,1.838332e+002
2.722006e+003,1.880790e+002
2.722970e+003,1.912039e+002
2.723935e+003,1.935145e+002
2.724899e+003,1.959080e+002
2.725863e+003,1.973073e+002
2.726827e+003,1.972565e+002
2.727792e+003,1.959618e+002
2.728756e+003,1.942845e+002
2.729720e+003,1.929393e+002
2.730684e+003,1.891832e+002
2.731648e+003,1.836609e+002
2.732613e+003,1.791414e+002
2.733577e+003,1.747092e+002
2.734541e+003,1.699693e+002
2.735505e+003,1.643316e+002
2.736469e+003,1.582361e+002
2.737434e+003,1.525641e+002
2.738398e+003,1.470952e+002
2.739362e+003,1.418482e+002
2.740326e+003,1.374640e+002
2.741291e+003,1.330179e+002
2.742255e+003,1.275478e+002
2.743219e+003,1.215625e+002
2.744183e+003,1.158727e+002
2.745148e+003,1.112479e+002
2.746112e+003,1.073813e+002
2.747076e+003,1.041210e+002
2.748040e+003,1.001300e+002
2.749005e+003,9.587106e+001
2.749969e+003,9.179055e+001
2.750933e+003,8.771741e+001
2.751897e+003,8.361657e+001
2.752862e+003,7.947474e+001
2.753826e+003,7.561305e+001
2.754790e+003,7.199339e+001
2.755754e+003,6.754726e+001
2.756719e+003,6.296612e+001
2.757683e+003,5.946485e+001
2.758647e+003,5.666103e+001
2.759611e+003,5.415006e+001
2.760575e+003,5.095036e+001
2.761540e+003,4.760051e+001
2.762504e+003,4.453296e+001
2.763468e+003,4.173622e+001
2.764432e+003,3.934438e+001
2.765396e+003,3.755687e+001
2.766361e+003,3.524539e+001
2.767325e+003,3.230087e+001
2.768289e+003,3.071823e+001
2.769253e+003,2.978496e+001
2.770218e+003,2.832319e+001
2.771182e+003,2.644856e+001
2.772146e+003,2.466777e+001
2.773110e+003,2.392321e+001
2.774075e+003,2.330530e+001
2.775039e+003,2.226871e+001
2.776003e+003,2.146535e+001
2.776967e+003,2.080177e+001
2.777932e+003,2.009971e+001
2.778896e+003,1.941183e+001
2.779860e+003,1.870100e+001
2.780824e+003,1.775340e+001
2.781789e+003,1.721883e+001
2.782753e+003,1.732904e+001
2.783717e+003,1.663192e+001
2.784681e+003,1.553445e+001
2.785646e+003,1.496534e+001
2.786610e+003,1.479743e+001
2.787574e+003,1.493811e+001
2.788538e+003,1.469982e+001
2.789502e+003,1.412066e+001
2.790467e+003,1.325174e+001
2.791431e+003,1.260903e+001
2.792395e+003,1.236445e+001
2.793359e+003,1.245554e+001
2.794323e+003,1.191913e+001
2.795288e+003,1.076809e+001
2.796252e+003,1.042520e+001
2.797216e+003,1.063620e+001
2.798180e+003,1.113493e+001
2.799145e+003,1.063663e+001
2.800109e+003,9.501266e+000
2.801073e+003,9.080127e+000
2.802037e+003,9.017973e+000
2.803002e+003,9.202588e+000
2.803966e+003,9.698424e+000
2.804930e+003,9.651531e+000
2.805894e+003,8.304443e+000
2.806859e+003,7.834431e+000
2.807823e+003,8.393048e+000
2.808787e+003,8.844378e+000
2.809751e+003,8.562234e+000
2.810716e+003,7.540292e+000
2.811680e+003,7.348639e+000
2.812644e+003,7.437726e+000
2.813608e+003,6.888521e+000
2.814573e+003,6.746537e+000
2.815537e+003,7.169451e+000
2.816501e+003,7.473528e+000
2.817465e+003,7.185280e+000
2.818429e+003,6.313447e+000
2.819394e+003,5.902804e+000
2.820358e+003,6.073492e+000
2.821322e+003,6.680219e+000
2.822286e+003,6.761864e+000
2.823250e+003,6.454521e+000
2.824215e+003,7.231767e+000
2.825179e+003,7.284530e+000
2.826143e+003,5.522475e+000
2.827107e+003,5.155030e+000
2.828072e+003,5.512945e+000
2.829036e+003,5.224099e+000
2.830000e+003,5.278567e+000
2.830964e+003,5.781258e+000
2.831929e+003,6.029279e+000
2.832893e+003,5.992947e+000
2.833857e+003,5.736216e+000
2.834821e+003,4.989145e+000
2.835786e+003,4.433615e+000
2.836750e+003,5.283181e+000
2.837714e+003,5.507290e+000
2.838678e+003,4.922449e+000
2.839643e+003,4.664106e+000
2.840607e+003,4.746089e+000
2.841571e+003,5.042335e+000
2.842535e+003,5.244636e+000
2.843500e+003,4.883979e+000
2.844464e+003,3.605096e+000
2.845428e+003,3.319163e+000
2.846392e+003,3.884331e+000
2.847356e+003,3.424270e+000
2.848321e+003,2.987125e+000
2.849285e+003,3.246625e+000
2.850249e+003,3.020795e+000
2.851213e+003,2.849199e+000
2.852177e+003,3.411381e+000
2.853142e+003,3.596781e+000
2.854106e+003,3.270022e+000
2.855070e+003,3.081210e+000
2.856034e+003,2.977402e+000
2.856999e+003,2.930020e+000
2.857963e+003,3.405398e+000
2.858927e+003,3.738731e+000
2.859891e+003,2.782729e+000
2.860856e+003,2.877093e+000
2.861820e+003,3.631227e+000
2.862784e+003,2.737357e+000
2.863748e+003,2.075843e+000
2.864713e+003,2.541208e+000
2.865677e+003,3.000407e+000
2.866641e+003,3.166997e+000
2.867605e+003,3.016707e+000
2.868570e+003,2.344840e+000
2.869534e+003,1.727133e+000
2.870498e+003,2.494606e+000
2.871462e+003,2.932376e+000
2.872427e+003,2.434406e+000
2.873391e+003,1.881330e+000
2.874355e+003,1.746741e+000
2.875319e+003,2.328701e+000
2.876283e+003,2.688777e+000
2.877248e+003,2.677203e+000
2.878212e+003,2.536096e+000
2.879176e+003,2.768604e+000
2.880140e+003,3.208072e+000
2.881104e+003,2.685729e+000
2.882069e+003,2.090314e+000
2.883033e+003,2.092500e+000
2.883997e+003,2.060802e+000
2.884961e+003,2.080282e+000
2.885926e+003,2.290443e+000
2.886890e+003,2.090340e+000
2.887854e+003,1.596626e+000
2.888818e+003,1.693582e+000
2.889783e+003,2.078409e+000
2.890747e+003,2.373187e+000
2.891711e+003,2.060925e+000
2.892675e+003,1.461440e+000
2.893640e+003,7.510132e-001
2.894604e+003,1.076428e+000
2.895568e+003,2.284051e+000
2.896532e+003,2.642773e+000
2.897497e+003,2.094233e+000
2.898461e+003,1.220607e+000
2.899425e+003,1.891982e+000
2.900389e+003,2.431034e+000
2.901354e+003,1.172812e+000
2.902318e+003,6.435114e-001
2.903282e+003,8.711082e-001
2.904246e+003,9.013727e-001
2.905210e+003,7.076383e-001
2.906175e+003,3.884732e-001
2.907139e+003,8.305830e-001
2.908103e+003,1.219487e+000
2.909067e+003,1.050740e+000
2.910031e+003,1.635747e+000
2.910996e+003,2.326822e+000
2.911960e+003,1.825504e+000
2.912924e+003,1.187976e+000
2.913888e+003,9.341397e-001
2.914853e+003,1.965110e+000
2.915817e+003,2.428883e+000
2.916781e+003,1.622777e+000
2.917745e+003,1.620556e+000
2.918710e+003,1.876315e+000
2.919674e+003,1.406046e+000
2.920638e+003,5.589211e-001
2.921602e+003,-8.206676e-002
2.922567e+003,1.981767e-001
2.923531e+003,5.049028e-001
2.924495e+003,5.547408e-001
2.925459e+003,6.956720e-001
2.926424e+003,5.966076e-001
2.927388e+003,9.925094e-002
2.928352e+003,9.162930e-002
2.929316e+003,4.929510e-001
2.930281e+003,7.877808e-001
2.931245e+003,8.422696e-001
2.932209e+003,7.754173e-001
2.933173e+003,8.372903e-001
2.934137e+003,1.031092e+000
2.935102e+003,1.381318e+000
2.936066e+003,9.149370e-001
2.937030e+003,4.352717e-001
2.937994e+003,6.842374e-001
2.938958e+003,7.321067e-001
2.939923e+003,5.079224e-001
2.940887e+003,3.888350e-001
2.941851e+003,6.588101e-001
2.942815e+003,1.063580e+000
2.943780e+003,6.615478e-001
2.944744e+003,1.250666e-001
2.945708e+003,-1.873369e-001
2.946672e+003,3.376909e-001
2.947637e+003,1.032705e+000
2.948601e+003,9.310802e-001
2.949565e+003,3.787287e-001
2.950529e+003,-8.901367e-002
2.951494e+003,2.682573e-001
2.952458e+003,6.555575e-001
2.953422e+003,7.008057e-001
2.954386e+003,1.721780e-001
2.955351e+003,3.116766e-001
2.956315e+003,1.966857e+000
2.957279e+003,1.896008e+000
2.958243e+003,8.338001e-001
2.959208e+003,7.750155e-001
2.960172e+003,3.916404e-001
2.961136e+003,-1.500877e-001
2.962100e+003,7.427779e-001
2.963064e+003,1.595685e+000
2.964029e+003,1.663093e+000
2.964993e+003,4.546143e-001
2.965957e+003,-2.924427e-001
2.966921e+003,5.918135e-001
2.967885e+003,1.056989e+000
2.968850e+003,9.149880e-001
2.969814e+003,7.585072e-001
2.970778e+003,1.007338e+000
2.971742e+003,1.318631e+000
2.972707e+003,5.111062e-001
2.973671e+003,-8.208008e-002
2.974635e+003,2.373935e-001
2.975600e+003,1.505549e-001
2.976564e+003,1.456721e-001
2.977528e+003,5.730169e-001
2.978492e+003,3.694591e-001
2.979457e+003,8.929999e-003
2.980421e+003,5.964522e-001
2.981385e+003,4.166393e-001
2.982349e+003,-5.026844e-001
2.983313e+003,-5.613947e-001
2.984278e+003,-8.954301e-002
2.985242e+003,7.256215e-001
2.986206e+003,8.152410e-001
2.987170e+003,2.399425e-001
2.988135e+003,-5.207764e-001
2.989099e+003,-2.269431e-001
2.990063e+003,5.883800e-001
2.991027e+003,7.842885e-001
2.991991e+003,6.517811e-001
2.992956e+003,3.594849e-001
2.993920e+003,5.964356e-002
2.994884e+003,-2.838912e-001
2.995848e+003,-5.899591e-001
2.996813e+003,-1.641291e-001
2.997777e+003,1.237038e-001
2.998741e+003,-3.821311e-001
2.999705e+003,9.336048e-002
3.000670e+003,8.541226e-001
3.001634e+003,2.774813e-001
3.002598e+003,-2.650934e-001
3.003562e+003,-3.639238e-001
3.004527e+003,3.609386e-001
3.005491e+003,8.332087e-001
3.006455e+003,5.615246e-001
3.007419e+003,-2.343450e-001
3.008384e+003,-3.560114e-001
3.009348e+003,7.182462e-001
3.010312e+003,3.243919e-001
3.011276e+003,-6.649181e-001
3.012240e+003,-5.839078e-001
3.013205e+003,-1.695756e-001
3.014169e+003,3.438732e-001
3.015133e+003,4.514171e-001
3.016097e+003,-1.558505e-001
3.017062e+003,-9.424316e-001
3.018026e+003,-1.088656e-001
3.018990e+003,5.385032e-001
3.019954e+003,-2.513650e-001
3.020918e+003,-7.398848e-001
3.021883e+003,-6.925448e-001
3.022847e+003,-4.273238e-002
3.023811e+003,2.767001e-001
3.024775e+003,1.779286e-001
3.025740e+003,3.208230e-002
3.026704e+003,2.680531e-001
3.027668e+003,6.387196e-001
3.028632e+003,1.340410e-001
3.029597e+003,-3.709007e-001
3.030561e+003,-4.317727e-001
3.031525e+003,-7.061801e-001
3.032489e+003,-6.787875e-001
3.033454e+003,-1.106068e-001
3.034418e+003,-4.308383e-001
3.035382e+003,-9.957453e-001
3.036346e+003,-4.859530e-001
3.037311e+003,8.825573e-002
3.038275e+003,4.005937e-001
3.039239e+003,5.706887e-001
3.040203e+003,-6.330677e-002
3.041167e+003,-1.236038e+000
3.042132e+003,-2.534735e-001
3.043096e+003,8.298540e-001
3.044060e+003,4.334894e-001
3.045024e+003,-9.543568e-002
3.045989e+003,-3.283059e-001
3.046953e+003,-2.177069e-002
3.047917e+003,-2.401401e-001
3.048881e+003,-7.758179e-001
3.049845e+003,-1.061093e+000
3.050810e+003,-1.189875e+000
3.051774e+003,-9.960993e-001
3.052738e+003,3.186956e-001
3.053702e+003,4.912442e-001
3.054667e+003,-8.476751e-001
3.055631e+003,4.900235e-002
3.056595e+003,7.261630e-001
3.057559e+003,-4.290960e-001
3.058524e+003,-8.222224e-001
3.059488e+003,-5.415161e-001
3.060452e+003,-2.866289e-001
3.061416e+003,-1.063099e-001
3.062381e+003,-2.324108e-002
3.063345e+003,-2.731823e-002
3.064309e+003,-1.931874e-001
3.065273e+003,-4.254750e-001
3.066238e+003,-2.929721e-001
3.067202e+003,-1.756725e-001
3.068166e+003,-3.593695e-001
3.069130e+003,-1.358420e+000
3.070094e+003,-1.598426e+000
3.071059e+003,-2.114879e-001
3.072023e+003,2.071267e-001
3.072987e+003,-1.119718e-001
3.073951e+003,-3.910423e-001
3.074916e+003,-4.934914e-001
3.075880e+003,-3.936401e-001
3.076844e+003,-1.482466e-001
3.077808e+003,-1.453447e-001
3.078772e+003,-2.005848e-001
3.079737e+003,6.291659e-001
3.080701e+003,1.012529e+000
3.081665e+003,3.225952e-001
3.082629e+003,-9.072920e-001
3.083594e+003,-1.196224e+000
3.084558e+003,-3.103804e-002
3.085522e+003,-3.952759e-001
3.086486e+003,-1.486758e+000
3.087451e+003,-1.771360e+000
3.088415e+003,-1.007907e+000
3.089379e+003,1.270885e-001
3.090343e+003,7.957941e-001
3.091308e+003,6.159834e-001
3.092272e+003,-1.124290e-001
3.093236e+003,-5.647749e-002
3.094200e+003,-5.708507e-001
3.095165e+003,-1.633530e+000
3.096129e+003,-1.369632e+000
3.097093e+003,-6.113514e-001
3.098057e+003,8.131214e-002
3.099021e+003,3.630882e-001
3.099986e+003,2.522383e-001
3.100950e+003,-1.455910e-001
3.101914e+003,-5.379627e-001
3.102878e+003,-8.419300e-001
3.103843e+003,-1.067798e+000
3.104807e+003,-5.806308e-001
3.105771e+003,-1.156561e-002
3.106735e+003,-9.273759e-001
3.107699e+003,-9.613370e-001
3.108664e+003,1.496626e-001
3.109628e+003,5.831044e-001
3.110592e+003,3.756115e-001
3.111556e+003,-2.878862e-002
3.112521e+003,2.475286e-001
3.113485e+003,4.895985e-001
3.114449e+003,6.971768e-002
3.115413e+003,-2.610185e-001
3.116378e+003,-7.106712e-002
3.117342e+003,7.866810e-001
3.118306e+003,8.984475e-001
3.119270e+003,3.448786e-001
3.120235e+003,-3.695568e-001
3.121199e+003,-5.841963e-001
3.122163e+003,-2.671365e-001
3.123127e+003,3.223833e-001
3.124092e+003,7.288707e-002
3.125056e+003,-8.632835e-001
3.126020e+003,-8.155429e-001
3.126984e+003,-2.331743e-001
3.127948e+003,3.069569e-001
3.128913e+003,3.693237e-001
3.129877e+003,3.556508e-001
3.130841e+003,5.450240e-001
3.131805e+003,8.440297e-001
3.132770e+003,5.536255e-001
3.133734e+003,-5.828835e-001
3.134698e+003,-6.438199e-001
3.135662e+003,5.317716e-002
3.136626e+003,7.541149e-001
3.137591e+003,6.043712e-001
3.138555e+003,-1.483332e-001
3.139519e+003,-8.394520e-001
3.140483e+003,-7.530906e-001
3.141448e+003,-8.653786e-002
3.142412e+003,1.304932e-001
3.143376e+003,8.901145e-003
3.144340e+003,-1.602484e-001
3.145305e+003,2.722845e-001
3.146269e+003,5.352905e-001
3.147233e+003,2.143144e-001
3.148197e+003,-7.970481e-001
3.149162e+003,-8.681629e-001
3.150126e+003,7.447044e-001
3.151090e+003,1.041690e+000
3.152054e+003,2.877863e-001
3.153019e+003,-8.280784e-001
3.153983e+003,-9.932140e-001
3.154947e+003,-5.675049e-001
3.155911e+003,-3.486905e-001
3.156875e+003,-5.196833e-001
3.157840e+003,-7.507724e-001
3.158804e+003,-1.969627e-001
3.159768e+003,-2.585827e-001
3.160732e+003,-1.058177e+000
3.161697e+003,-1.527492e+000
3.162661e+003,-1.025673e+000
3.163625e+003,2.640237e-001
3.164589e+003,6.017711e-001
3.165553e+003,1.489979e-001
3.166518e+003,-5.014516e-001
3.167482e+003,-4.774547e-001
3.168446e+003,5.658958e-002
3.169410e+003,8.924116e-001
3.170375e+003,6.192749e-001
3.171339e+003,1.489901e-001
3.172303e+003,5.826971e-001
3.173267e+003,6.707209e-001
3.174232e+003,5.538175e-001
3.175196e+003,1.227403e+000
3.176160e+003,5.414606e-001
3.177124e+003,-5.206698e-001
3.178089e+003,2.265570e-001
3.179053e+003,6.176392e-001
3.180017e+003,2.598755e-001
3.180981e+003,6.739835e-002
3.181946e+003,5.394143e-001
3.182910e+003,1.459037e+000
3.183874e+003,1.596392e+000
3.184838e+003,1.172191e+000
3.185802e+003,6.546287e-001
3.186767e+003,1.745036e+000
3.187731e+003,2.377380e+000
3.188695e+003,1.382859e+000
3.189659e+003,1.008584e+000
3.190624e+003,1.103432e+000
3.191588e+003,1.223662e+000
3.192552e+003,7.401367e-001
3.193516e+003,3.671598e-001
3.194480e+003,7.793102e-001
3.195445e+003,2.962369e-001
3.196409e+003,-4.166049e-001
3.197373e+003,4.742298e-001
3.198337e+003,-3.533381e-003
3.199302e+003,-1.113762e+000
3.200266e+003,-8.606800e-001
3.201230e+003,1.360174e-001
3.202194e+003,9.113858e-001
3.203159e+003,-6.179976e-002
3.204123e+003,-5.716475e-001
3.205087e+003,-1.451971e-001
3.206051e+003,-6.492809e-002
3.207016e+003,1.156883e-001
3.207980e+003,3.551991e-001
3.208944e+003,-3.275912e-001
3.209908e+003,-4.322909e-001
3.210873e+003,5.420654e-001
3.211837e+003,6.229115e-001
3.212801e+003,4.971591e-002
3.213765e+003,-7.855136e-001
3.214729e+003,-6.358432e-001
3.215694e+003,-2.189542e-001
3.216658e+003,-1.900690e-001
3.217622e+003,6.240023e-001
3.218586e+003,1.556881e+000
3.219551e+003,1.649239e+000
3.220515e+003,1.488613e+000
3.221479e+003,8.963834e-001
3.222443e+003,-6.882213e-002
3.223407e+003,7.177102e-001
3.224372e+003,2.095240e+000
3.225336e+003,1.240152e+000
3.226300e+003,5.608942e-001
3.227264e+003,6.682417e-001
3.228229e+003,1.517180e+000
3.229193e+003,1.961765e+000
3.230157e+003,1.980190e+000
3.231121e+003,2.540836e+000
3.232086e+003,2.687831e+000
3.233050e+003,2.439099e+000
3.234014e+003,3.375375e+000
3.234978e+003,4.174266e+000
3.235943e+003,4.380720e+000
3.236907e+003,4.382783e+000
3.237871e+003,5.416162e+000
3.238835e+003,7.428829e+000
3.239800e+003,7.607322e+000
3.240764e+003,7.916399e+000
3.241728e+003,9.627936e+000
3.242692e+003,1.072220e+001
3.243656e+003,1.190899e+001
3.244621e+003,1.376472e+001
3.245585e+003,1.550239e+001
3.246549e+003,1.722024e+001
3.247513e+003,1.913818e+001
3.248478e+003,2.150772e+001
3.249442e+003,2.402397e+001
3.250406e+003,2.628384e+001
3.251370e+003,2.842174e+001
3.252334e+003,2.998649e+001
3.253299e+003,3.053134e+001
3.254263e+003,2.940530e+001
3.255227e+003,2.749535e+001
3.256191e+003,2.598407e+001
3.257156e+003,2.342616e+001
3.258120e+003,1.987409e+001
3.259084e+003,1.614545e+001
3.260048e+003,1.390998e+001
3.261013e+003,1.252968e+001
3.261977e+003,9.694921e+000
3.262941e+003,7.139560e+000
3.263905e+003,5.349253e+000
3.264870e+003,4.264129e+000
3.265834e+003,3.428459e+000
3.266798e+003,2.676141e+000
3.267762e+003,2.146173e+000
3.268727e+003,2.064182e+000
3.269691e+003,2.397522e+000
3.270655e+003,2.256879e+000
3.271619e+003,1.327277e+000
3.272583e+003,2.641923e-001
3.273548e+003,1.262612e+000
3.274512e+003,2.146156e+000
3.275476e+003,1.724200e+000
3.276440e+003,8.681330e-001
3.277405e+003,3.294300e-001
3.278369e+003,3.895397e-001
3.279333e+003,2.125033e-001
3.280297e+003,-1.377763e-001
3.281261e+003,-4.961237e-001
3.282226e+003,-4.369795e-001
3.283190e+003,-5.125433e-001
3.284154e+003,-8.791948e-001
3.285118e+003,3.601074e-002
3.286083e+003,7.298218e-001
3.287047e+003,-1.873524e-001
3.288011e+003,6.767711e-001
3.288975e+003,1.436040e+000
3.289940e+003,3.555620e-001
3.290904e+003,-3.769442e-001
3.291868e+003,-1.099953e-001
3.292832e+003,1.041313e+000
3.293797e+003,8.000078e-001
3.294761e+003,-5.480291e-002
3.295725e+003,-6.182861e-002
3.296689e+003,-4.973533e-001
3.297654e+003,-8.319436e-001
3.298618e+003,-9.827881e-002
3.299582e+003,3.642689e-002
3.300546e+003,-3.258012e-001
3.301510e+003,-2.557551e-001
3.302475e+003,-2.811767e-001
3.303439e+003,-4.827670e-001
3.304403e+003,-7.891091e-001
3.305367e+003,-1.030438e+000
3.306332e+003,-8.295255e-001
3.307296e+003,7.877153e-001
3.308260e+003,9.246349e-001
3.309224e+003,7.338756e-002
3.310189e+003,2.568193e-001
3.311153e+003,3.986350e-001
3.312117e+003,2.320923e-001
3.313081e+003,1.133978e-001
3.314046e+003,1.448198e-003
3.315010e+003,-1.390026e-001
3.315974e+003,-3.499146e-001
3.316938e+003,-7.577060e-001
3.317903e+003,-1.240321e+000
3.318867e+003,-1.625964e+000
3.319831e+003,-1.081460e+000
3.320795e+003,1.022217e-001
3.321760e+003,3.150147e-001
3.322724e+003,-3.185858e-001
3.323688e+003,-9.597878e-001
3.324652e+003,4.748091e-001
3.325616e+003,1.102143e+000
3.326581e+003,7.462602e-002
3.327545e+003,-1.012106e+000
3.328509e+003,-9.986406e-001
3.329473e+003,-9.847190e-002
3.330438e+003,-3.350309e-001
3.331402e+003,-2.669744e-001
3.332366e+003,3.214522e-001
3.333330e+003,-9.669977e-001
3.334294e+003,-1.225610e+000
3.335259e+003,6.809748e-002
3.336223e+003,-2.031672e-001
3.337187e+003,-2.650801e-001
3.338151e+003,4.484874e-001
3.339116e+003,1.939542e-001
3.340080e+003,-2.903942e-001
3.341044e+003,-5.560969e-001
3.342008e+003,-2.977972e-001
3.342973e+003,3.723478e-002
3.343937e+003,1.401689e-001
3.344901e+003,9.978804e-002
3.345865e+003,-1.389304e-001
3.346830e+003,-5.232955e-001
3.347794e+003,-1.346147e-001
3.348758e+003,3.495694e-001
3.349722e+003,2.924971e-001
3.350687e+003,-1.102430e+000
3.351651e+003,-1.624181e+000
3.352615e+003,-2.569402e-001
3.353579e+003,2.954656e-002
3.354543e+003,-2.158603e-001
3.355508e+003,-3.504328e-001
3.356472e+003,5.811424e-001
3.357436e+003,1.063455e+000
3.358400e+003,2.708918e-001
3.359365e+003,-5.676514e-001
3.360329e+003,-4.889060e-001
3.361293e+003,4.714389e-001
3.362257e+003,4.737682e-001
3.363221e+003,-2.893310e-001
3.364186e+003,-8.688887e-001
3.365150e+003,2.750802e+000
3.366114e+003,3.777108e+000
3.367078e+003,3.642955e-001
3.368043e+003,-8.958385e-001
3.369007e+003,-6.586015e-001
3.369971e+003,-1.880427e-001
3.370935e+003,-6.596236e-002
3.371900e+003,-4.422807e-001
3.372864e+003,-9.934226e-001
3.373828e+003,1.181463e-001
3.374792e+003,1.006793e+000
3.375757e+003,6.011220e-001
3.376721e+003,1.081155e-001
3.377685e+003,-1.634899e-001
3.378649e+003,-1.772494e-001
3.379614e+003,1.376953e-002
3.380578e+003,4.420621e-001
3.381542e+003,7.987693e-001
3.382506e+003,-8.160400e-002
3.383470e+003,-5.910256e-001
3.384435e+003,-1.734120e-001
3.385399e+003,-2.314897e-003
3.386363e+003,-1.082020e-001
3.387327e+003,-3.676836e-001
3.388292e+003,-6.244096e-001
3.389256e+003,-7.168080e-001
3.390220e+003,-6.780196e-001
3.391184e+003,-7.699174e-001
3.392148e+003,1.658225e-001
3.393113e+003,1.549710e+000
3.394077e+003,6.194513e-003
3.395041e+003,-7.894365e-001
3.396005e+003,2.107344e-001
3.396970e+003,3.898315e-001
3.397934e+003,1.873901e-001
3.398898e+003,-8.530495e-002
3.399862e+003,-4.693970e-001
3.400827e+003,-8.267767e-001
3.401791e+003,-9.703413e-001
3.402755e+003,-4.747459e-001
3.403719e+003,-5.652488e-001
3.404684e+003,-1.078324e+000
3.405648e+003,-2.182195e-001
3.406612e+003,3.566318e-001
3.407576e+003,7.682551e-002
3.408541e+003,-7.973500e-001
3.409505e+003,-9.347268e-001
3.410469e+003,-2.844860e-001
3.411433e+003,2.832808e-001
3.412397e+003,3.398060e-001
3.413362e+003,1.482799e-001
3.414326e+003,4.253640e-001
3.415290e+003,2.356811e-001
3.416254e+003,-2.670310e-001
3.417219e+003,-2.462158e-002
3.418183e+003,-2.985396e-001
3.419147e+003,-7.813277e-001
3.420111e+003,-4.048939e-001
3.421075e+003,-1.290217e-001
3.422040e+003,-2.469649e-001
3.423004e+003,-8.335094e-001
3.423968e+003,-1.048873e-001
3.424932e+003,1.008447e+000
3.425897e+003,7.246260e-001
3.426861e+003,3.199774e-001
3.427825e+003,4.107477e-001
3.428789e+003,1.299862e+000
3.429754e+003,1.114053e+000
3.430718e+003,3.403220e-001
3.431682e+003,2.147994e-002
3.432646e+003,-1.261652e-002
3.433611e+003,1.923784e-001
3.434575e+003,5.458097e-001
3.435539e+003,-5.020031e-001
3.436503e+003,-1.061187e+000
3.437468e+003,4.500277e-001
3.438432e+003,5.844882e-001
3.439396e+003,-1.302734e-001
3.440360e+003,-3.832375e-001
3.441324e+003,-1.182861e-002
3.442289e+003,5.719127e-001
3.443253e+003,1.027215e+000
3.444217e+003,9.924505e-001
3.445181e+003,4.332209e-001
3.446146e+003,-2.949563e-001
3.447110e+003,4.781816e-001
3.448074e+003,9.937877e-001
3.449038e+003,3.899170e-001
3.450002e+003,-2.243541e-002
3.450967e+003,2.075417e-002
3.451931e+003,3.581743e-001
3.452895e+003,2.274936e-001
3.453859e+003,-1.157948e-001
3.454824e+003,-1.840421e-001
3.455788e+003,1.440328e+000
3.456752e+003,1.631295e+000
3.457716e+003,-2.062944e-001
3.458681e+003,-7.970492e-001
3.459645e+003,7.112926e-002
3.460609e+003,1.654531e+000
3.461573e+003,1.497379e+000
3.462538e+003,8.650246e-001
3.463502e+003,5.812711e-001
3.464466e+003,8.909491e-001
3.465430e+003,1.216759e+000
3.466395e+003,1.020573e+000
3.467359e+003,-3.448708e-001
3.468323e+003,1.558727e-001
3.469287e+003,1.730038e+000
3.470251e+003,1.445050e+000
3.471216e+003,3.161743e-001
3.472180e+003,-6.526878e-001
3.473144e+003,-1.121382e-001
3.474108e+003,7.018466e-001
3.475073e+003,8.861639e-001
3.476037e+003,-1.555664e-001
3.477001e+003,1.336193e-001
3.477965e+003,8.019919e-001
3.478929e+003,5.176081e-001
3.479894e+003,9.964533e-001
3.480858e+003,1.298152e+000
3.481822e+003,4.140825e-001
3.482786e+003,4.539351e-001
3.483751e+003,6.076593e-001
3.484715e+003,2.002375e-001
3.485679e+003,-2.925249e-003
3.486643e+003,2.908836e-001
3.487608e+003,9.300537e-001
3.488572e+003,2.420011e-001
3.489536e+003,-3.779574e-001
3.490500e+003,7.655140e-002
3.491465e+003,2.098974e+000
3.492429e+003,2.576887e+000
3.493393e+003,9.466242e-001
3.494357e+003,9.042081e-002
3.495322e+003,2.582142e-001
3.496286e+003,1.043872e+000
3.497250e+003,1.781167e+000
3.498214e+003,1.743585e+000
3.499178e+003,1.220685e+000
3.500143e+003,1.312419e+000
