9.998845e+002,7.429810e-001
1.000849e+003,8.171087e-001
1.001813e+003,4.454529e-001
1.002777e+003,-1.722844e-001
1.003741e+003,-4.153819e-001
1.004706e+003,-1.432261e-001
1.005670e+003,1.082891e-001
1.006634e+003,-3.907115e-002
1.007598e+003,1.956955e-001
1.008563e+003,7.842377e-001
1.009527e+003,6.604990e-001
1.010491e+003,2.148712e-001
1.011455e+003,3.115143e-001
1.012420e+003,1.010628e+000
1.013384e+003,1.273949e+000
1.014348e+003,6.796331e-001
1.015312e+003,-2.337753e-001
1.016276e+003,-9.985606e-001
1.017241e+003,-4.096375e-001
1.018205e+003,7.291310e-001
1.019169e+003,1.451540e+000
1.020133e+003,1.372261e+000
1.021098e+003,6.292613e-001
1.022062e+003,-6.724833e-001
1.023026e+003,-2.915421e-001
1.023990e+003,5.088928e-001
1.024955e+003,7.134171e-001
1.025919e+003,5.280950e-001
1.026883e+003,2.567958e-001
1.027847e+003,1.414637e-001
1.028812e+003,6.515645e-001
1.029776e+003,1.381594e+000
1.030740e+003,8.553640e-001
1.031704e+003,2.223984e-001
1.032668e+003,6.057332e-002
1.033633e+003,1.396449e-001
1.034597e+003,1.899440e-001
1.035561e+003,2.438319e-001
1.036525e+003,4.317352e-001
1.037490e+003,5.871160e-001
1.038454e+003,3.424744e-001
1.039418e+003,2.307546e-001
1.040382e+003,4.846502e-001
1.041347e+003,7.816671e-001
1.042311e+003,8.428416e-001
1.043275e+003,5.701380e-001
1.044239e+003,-2.335770e-001
1.045203e+003,-7.176992e-001
1.046168e+003,4.701589e-002
1.047132e+003,3.907832e-001
1.048096e+003,1.414459e-001
1.049060e+003,-2.454636e-001
1.050025e+003,-4.024302e-001
1.050989e+003,-2.007014e-001
1.051953e+003,5.568624e-001
1.052917e+003,9.931462e-001
1.053882e+003,7.495977e-001
1.054846e+003,5.808141e-001
1.055810e+003,4.929098e-001
1.056774e+003,3.117920e-001
1.057739e+003,5.811463e-002
1.058703e+003,-2.317861e-002
1.059667e+003,2.218608e-001
1.060631e+003,4.350698e-001
1.061595e+003,5.813156e-001
1.062560e+003,5.980281e-001
1.063524e+003,5.533259e-001
1.064488e+003,5.459926e-001
1.065452e+003,5.720286e-001
1.066417e+003,5.565063e-001
1.067381e+003,4.594310e-001
1.068345e+003,-1.503255e-001
1.069309e+003,-7.459437e-001
1.070274e+003,1.396434e-001
1.071238e+003,1.197776e+000
1.072202e+003,1.226373e+000
1.073166e+003,4.971522e-001
1.074130e+003,1.094208e-002
1.075095e+003,-2.574005e-001
1.076059e+003,-1.144304e+000
1.077023e+003,-2.949086e-001
1.077987e+003,7.530535e+000
1.078952e+003,1.257829e+001
1.079916e+003,9.029049e+000
1.080880e+003,2.446640e+000
1.081844e+003,6.083094e-001
1.082809e+003,1.398483e+000
1.083773e+003,1.255578e+000
1.084737e+003,7.936437e-001
1.085701e+003,1.244705e-001
1.086666e+003,-8.281861e-002
1.087630e+003,2.690389e-001
1.088594e+003,6.921697e-001
1.089558e+003,7.783559e-001
1.090522e+003,5.974864e-001
1.091487e+003,8.409322e-002
1.092451e+003,-4.559581e-002
1.093415e+003,5.129791e-001
1.094379e+003,6.116913e-001
1.095344e+003,2.873596e-001
1.096308e+003,-1.970062e-002
1.097272e+003,-1.518046e-001
1.098236e+003,-4.527964e-001
1.099201e+003,-1.233379e+000
1.100165e+003,-6.939814e-001
1.101129e+003,9.373703e-001
1.102093e+003,1.250970e+000
1.103057e+003,7.226812e-001
1.104022e+003,-3.310649e-002
1.104986e+003,-5.811712e-001
1.105950e+003,-6.310435e-001
1.106914e+003,-1.474655e-001
1.107879e+003,-3.205312e-002
1.108843e+003,-9.700470e-002
1.109807e+003,9.576162e-002
1.110771e+003,3.821670e-001
1.111736e+003,7.173976e-001
1.112700e+003,9.229634e-001
1.113664e+003,8.257594e-001
1.114628e+003,4.595652e-001
1.115593e+003,-5.171712e-002
1.116557e+003,-4.643677e-001
1.117521e+003,-5.788060e-001
1.118485e+003,-4.230632e-001
1.119449e+003,1.154983e-001
1.120414e+003,3.288915e-001
1.121378e+003,-1.097036e-001
1.122342e+003,-4.283229e-001
1.123306e+003,4.041748e-001
1.124271e+003,1.041506e+000
1.125235e+003,3.751912e-001
1.126199e+003,-2.310827e-001
1.127163e+003,-6.231323e-001
1.128128e+003,-5.055466e-001
1.129092e+003,-2.494863e-002
1.130056e+003,2.492569e-001
1.131020e+003,-2.625427e-002
1.131984e+003,-1.053401e-001
1.132949e+003,3.720484e-001
1.133913e+003,4.203308e-001
1.134877e+003,2.046209e-001
1.135841e+003,5.352885e-002
1.136806e+003,-7.112478e-002
1.137770e+003,-4.541260e-001
1.138734e+003,-1.009381e+000
1.139698e+003,-8.861476e-001
1.140663e+003,-1.373901e-001
1.141627e+003,-3.152822e-001
1.142591e+003,-6.041244e-001
1.143555e+003,-2.174815e-001
1.144520e+003,2.970230e-001
1.145484e+003,4.079636e-001
1.146448e+003,1.917023e-001
1.147412e+003,6.561432e-002
1.148376e+003,7.827606e-002
1.149341e+003,5.822932e-001
1.150305e+003,7.433655e-001
1.151269e+003,-2.858922e-001
1.152233e+003,-6.924840e-001
1.153198e+003,4.258575e-002
1.154162e+003,8.485133e-001
1.155126e+003,7.507222e-001
1.156090e+003,2.737885e-001
1.157055e+003,-1.862986e-001
1.158019e+003,-4.079198e-001
1.158983e+003,-3.338369e-001
1.159947e+003,-3.175812e-002
1.160911e+003,2.895869e-001
1.161876e+003,7.973226e-003
1.162840e+003,-7.494161e-001
1.163804e+003,-1.014696e+000
1.164769e+003,-3.121633e-001
1.165733e+003,7.057902e-002
1.166697e+003,4.369863e-002
1.167661e+003,-8.188120e-002
1.168625e+003,-8.197937e-002
1.169590e+003,5.753266e-001
1.170554e+003,1.244488e+000
1.171518e+003,9.350922e-001
1.172482e+003,-1.880432e-001
1.173447e+003,-4.685883e-001
1.174411e+003,-1.883275e-001
1.175375e+003,1.822255e-002
1.176339e+003,1.165059e-001
1.177304e+003,-1.110687e-002
1.178268e+003,-8.367360e-002
1.179232e+003,4.775645e-002
1.180196e+003,2.534078e-001
1.181161e+003,3.556152e-001
1.182125e+003,4.973561e-001
1.183089e+003,1.084655e+000
1.184053e+003,1.022388e+000
1.185017e+003,-1.767181e-001
1.185982e+003,-7.923315e-001
1.186946e+003,-6.605917e-001
1.187910e+003,-2.370595e-001
1.188874e+003,7.867737e-002
1.189839e+003,3.456370e-002
1.190803e+003,-5.807770e-001
1.191767e+003,-9.003810e-001
1.192731e+003,-8.599518e-001
1.193696e+003,-4.167567e-001
1.194660e+003,9.988912e-003
1.195624e+003,-2.437413e-001
1.196588e+003,-8.007533e-001
1.197552e+003,-9.067027e-001
1.198517e+003,-4.326869e-001
1.199481e+003,2.462163e-001
1.200445e+003,8.875112e-001
1.201409e+003,8.141937e-001
1.202374e+003,4.065003e-001
1.203338e+003,-5.345627e-001
1.204302e+003,-9.568517e-001
1.205266e+003,-3.488556e-001
1.206231e+003,5.778819e-001
1.207195e+003,8.171799e-001
1.208159e+003,4.909566e-001
1.209123e+003,-7.329229e-001
1.210088e+003,-1.032010e+000
1.211052e+003,4.074906e-001
1.212016e+003,1.025389e+000
1.212980e+003,6.441986e-001
1.213944e+003,-1.317027e-001
1.214909e+003,-7.604924e-001
1.215873e+003,-8.204392e-001
1.216837e+003,-8.252157e-002
1.217801e+003,9.192861e-002
1.218766e+003,-4.191712e-001
1.219730e+003,-5.956202e-001
1.220694e+003,-5.571854e-001
1.221658e+003,-3.831233e-001
1.222623e+003,-1.680496e-001
1.223587e+003,5.209249e-002
1.224551e+003,1.764109e-001
1.225515e+003,-3.111877e-002
1.226479e+003,-4.409139e-001
1.227444e+003,-8.506333e-001
1.228408e+003,-1.032348e+000
1.229372e+003,-7.731273e-001
1.230336e+003,-4.446009e-001
1.231301e+003,-1.908178e-001
1.232265e+003,3.081258e-002
1.233229e+003,2.716075e-001
1.234193e+003,5.372050e-001
1.235158e+003,8.525746e-001
1.236122e+003,9.826162e-001
1.237086e+003,8.218506e-001
1.238050e+003,3.831024e-001
1.239015e+003,-1.216492e-001
1.239979e+003,3.597514e-003
1.240943e+003,4.597707e-001
1.241907e+003,3.138321e-001
1.242871e+003,-5.613312e-001
1.243836e+003,-8.765020e-001
1.244800e+003,-5.362890e-001
1.245764e+003,-7.631581e-002
1.246728e+003,2.794215e-001
1.247693e+003,2.517191e-001
1.248657e+003,8.618418e-002
1.249621e+003,-8.336792e-002
1.250585e+003,-1.219259e-001
1.251550e+003,5.015106e-002
1.252514e+003,2.993307e-001
1.253478e+003,4.355250e-001
1.254442e+003,3.361913e-001
1.255406e+003,-4.059621e-001
1.256371e+003,-6.597392e-001
1.257335e+003,-3.106476e-001
1.258299e+003,1.090418e-001
1.259263e+003,3.118286e-001
1.260228e+003,9.026083e-002
1.261192e+003,-4.905879e-001
1.262156e+003,-5.030859e-001
1.263120e+003,7.164297e-001
1.264085e+003,3.365479e-001
1.265049e+003,-7.958221e-001
1.266013e+003,-7.957509e-001
1.266977e+003,-3.010478e-001
1.267942e+003,1.226807e-002
1.268906e+003,-9.540304e-003
1.269870e+003,-2.652008e-001
1.270834e+003,-5.640656e-001
1.271798e+003,-4.096252e-001
1.272763e+003,1.180013e-003
1.273727e+003,6.405385e-001
1.274691e+003,9.391550e-001
1.275655e+003,5.405350e-001
1.276620e+003,1.077438e-001
1.277584e+003,-9.926148e-002
1.278548e+003,-6.008911e-002
1.279512e+003,1.634074e-001
1.280477e+003,3.632350e-001
1.281441e+003,4.263535e-001
1.282405e+003,2.883240e-001
1.283369e+003,-6.403351e-002
1.284333e+003,-3.697362e-001
1.285298e+003,-5.072301e-001
1.286262e+003,-6.800639e-002
1.287226e+003,4.042582e-001
1.288190e+003,-6.591288e-002
1.289155e+003,-1.145347e+000
1.290119e+003,-1.031672e+000
1.291083e+003,-1.795858e-001
1.292047e+003,2.880961e-002
1.293012e+003,4.162496e-002
1.293976e+003,2.667567e-001
1.294940e+003,1.204158e-001
1.295904e+003,-6.061742e-001
1.296869e+003,-8.178650e-001
1.297833e+003,-8.844045e-002
1.298797e+003,5.442088e-001
1.299761e+003,2.399770e-001
1.300725e+003,-3.223979e-001
1.301690e+003,-1.280730e+000
1.302654e+003,-6.624395e-001
1.303618e+003,7.925893e-001
1.304582e+003,7.414123e-001
1.305547e+003,-8.038330e-002
1.306511e+003,-2.034581e-001
1.307475e+003,3.290975e-001
1.308439e+003,5.261790e-001
1.309404e+003,3.238683e-001
1.310368e+003,7.343394e-002
1.311332e+003,-2.230809e-001
1.312296e+003,-8.466344e-001
1.313260e+003,-1.027332e+000
1.314225e+003,-2.190501e-002
1.315189e+003,5.108958e-001
1.316153e+003,3.376262e-002
1.317117e+003,-4.413361e-001
1.318082e+003,-1.735448e-001
1.319046e+003,2.392100e-001
1.320010e+003,4.379842e-001
1.320974e+003,2.076335e-001
1.321939e+003,-5.857401e-001
1.322903e+003,-3.901108e-001
1.323867e+003,2.386180e-001
1.324831e+003,3.106160e-001
1.325796e+003,1.819356e-002
1.326760e+003,-7.524312e-002
1.327724e+003,5.631002e-003
1.328688e+003,-1.773173e-001
1.329652e+003,-5.357931e-001
1.330617e+003,-8.331813e-001
1.331581e+003,-8.216675e-001
1.332545e+003,2.683004e-002
1.333509e+003,4.564534e-001
1.334474e+003,7.187347e-002
1.335438e+003,-4.908605e-001
1.336402e+003,-8.001978e-001
1.337366e+003,-6.033559e-001
1.338331e+003,8.169962e-002
1.339295e+003,3.417948e-001
1.340259e+003,-3.748927e-001
1.341223e+003,-7.795181e-001
1.342188e+003,-8.234019e-001
1.343152e+003,-2.435135e-001
1.344116e+003,3.516134e-001
1.345080e+003,2.253169e-001
1.346044e+003,-2.925908e-001
1.347009e+003,-7.119868e-001
1.347973e+003,-6.893229e-001
1.348937e+003,1.343491e-001
1.349901e+003,9.709218e-001
1.350866e+003,2.842763e-001
1.351830e+003,-3.029867e-001
1.352794e+003,7.875773e-002
1.353758e+003,5.494232e-001
1.354723e+003,9.208008e-001
1.355687e+003,9.977162e-001
1.356651e+003,7.931824e-001
1.357615e+003,3.840190e-001
1.358579e+003,-5.254669e-002
1.359544e+003,3.361104e-002
1.360508e+003,7.895945e-001
1.361472e+003,6.693023e-001
1.362436e+003,1.589696e-001
1.363401e+003,1.295324e-001
1.364365e+003,2.673706e-001
1.365329e+003,3.532369e-001
1.366293e+003,4.798838e-001
1.367258e+003,7.116699e-001
1.368222e+003,7.736796e-001
1.369186e+003,3.659190e-001
1.370150e+003,-2.025818e-001
1.371115e+003,-8.233653e-001
1.372079e+003,-6.192917e-001
1.373043e+003,9.918671e-001
1.374007e+003,1.037321e+000
1.374971e+003,3.998922e-002
1.375936e+003,-5.178050e-001
1.376900e+003,-3.846827e-001
1.377864e+003,2.694509e-001
1.378828e+003,1.006873e+000
1.379793e+003,9.275787e-001
1.380757e+003,2.701477e-001
1.381721e+003,2.503682e-001
1.382685e+003,4.475067e-001
1.383650e+003,3.636210e-001
1.384614e+003,2.941264e-001
1.385578e+003,3.465190e-001
1.386542e+003,4.341502e-001
1.387506e+003,4.802144e-001
1.388471e+003,3.342916e-001
1.389435e+003,3.266398e-002
1.390399e+003,7.196961e-002
1.391363e+003,7.193125e-001
1.392328e+003,5.701019e-001
1.393292e+003,-4.148865e-001
1.394256e+003,1.175079e-001
1.395220e+003,9.838684e-001
1.396185e+003,7.116770e-001
1.397149e+003,1.347565e-001
1.398113e+003,4.769796e-002
1.399077e+003,6.245005e-001
1.400042e+003,1.623731e+000
1.401006e+003,2.148929e+000
1.401970e+003,1.002732e+000
1.402934e+003,-1.491536e-001
1.403898e+003,-1.092885e-001
1.404863e+003,3.226359e-001
1.405827e+003,1.023230e+000
1.406791e+003,9.321554e-001
1.407755e+003,4.232778e-001
1.408720e+003,5.801321e-001
1.409684e+003,1.111452e+000
1.410648e+003,7.470876e-001
1.411612e+003,-3.060537e-001
1.412577e+003,4.898173e-002
1.413541e+003,1.112156e+000
1.414505e+003,1.017793e+000
1.415469e+003,4.898692e-001
1.416433e+003,-5.278249e-001
1.417398e+003,-5.089574e-001
1.418362e+003,9.104645e-001
1.419326e+003,1.615109e+000
1.420290e+003,1.043498e+000
1.421255e+003,4.191183e-001
1.422219e+003,4.071320e-001
1.423183e+003,5.551463e-001
1.424147e+003,7.419444e-001
1.425112e+003,9.345133e-001
1.426076e+003,1.065482e+000
1.427040e+003,7.351797e-001
1.428004e+003,4.553975e-001
1.428969e+003,7.224681e-001
1.429933e+003,1.129279e+000
1.430897e+003,1.394277e+000
1.431861e+003,1.170467e+000
1.432825e+003,4.110952e-001
1.433790e+003,-5.492248e-002
1.434754e+003,5.102804e-001
1.435718e+003,1.062662e+000
1.436682e+003,1.111243e+000
1.437647e+003,1.178421e+000
1.438611e+003,1.264137e+000
1.439575e+003,1.545278e+000
1.440539e+003,1.654268e+000
1.441504e+003,9.258687e-001
1.442468e+003,-4.466349e-002
1.443432e+003,-4.475383e-001
1.444396e+003,4.671631e-002
1.445360e+003,1.504515e+000
1.446325e+003,2.594386e+000
1.447289e+003,1.127177e+000
1.448253e+003,-2.077637e-002
1.449217e+003,9.215993e-001
1.450182e+003,1.206689e+000
1.451146e+003,8.435934e-001
1.452110e+003,9.837270e-001
1.453074e+003,1.506862e+000
1.454039e+003,1.743672e+000
1.455003e+003,1.551016e+000
1.455967e+003,1.164909e+000
1.456931e+003,8.619517e-001
1.457896e+003,1.494573e+000
1.458860e+003,2.330140e+000
1.459824e+003,1.780313e+000
1.460788e+003,1.150885e+000
1.461752e+003,7.695801e-001
1.462717e+003,1.166579e+000
1.463681e+003,2.211273e+000
1.464645e+003,2.402495e+000
1.465609e+003,1.625744e+000
1.466574e+003,9.565267e-001
1.467538e+003,9.064697e-001
1.468502e+003,1.330452e+000
1.469466e+003,2.102998e+000
1.470431e+003,1.877590e+000
1.471395e+003,1.200492e+000
1.472359e+003,1.316430e+000
1.473323e+003,1.638618e+000
1.474287e+003,1.963500e+000
1.475252e+003,2.173937e+000
1.476216e+003,2.227434e+000
1.477180e+003,1.833843e+000
1.478144e+003,1.182000e+000
1.479109e+003,1.310073e+000
1.480073e+003,2.556118e+000
1.481037e+003,3.046217e+000
1.482001e+003,2.243885e+000
1.482966e+003,1.889001e+000
1.483930e+003,1.899380e+000
1.484894e+003,2.245128e+000
1.485858e+003,2.527792e+000
1.486823e+003,2.363638e+000
1.487787e+003,2.230273e+000
1.488751e+003,2.403666e+000
1.489715e+003,2.617686e+000
1.490679e+003,2.634953e+000
1.491644e+003,2.515089e+000
1.492608e+003,2.328125e+000
1.493572e+003,2.495017e+000
1.494536e+003,3.289704e+000
1.495501e+003,3.628155e+000
1.496465e+003,3.678607e+000
1.497429e+003,3.723596e+000
1.498393e+003,3.838588e+000
1.499358e+003,4.141998e+000
1.500322e+003,4.375063e+000
1.501286e+003,4.364511e+000
1.502250e+003,4.545665e+000
1.503215e+003,5.173093e+000
1.504179e+003,5.423053e+000
1.505143e+003,4.612851e+000
1.506107e+003,3.690217e+000
1.507072e+003,2.587121e+000
1.508036e+003,3.588803e+000
1.509000e+003,5.532480e+000
1.509964e+003,5.175052e+000
1.510928e+003,4.094459e+000
1.511893e+003,4.052875e+000
1.512857e+003,4.593732e+000
1.513821e+003,5.018048e+000
1.514785e+003,5.277055e+000
1.515750e+003,5.381967e+000
1.516714e+003,5.133301e+000
1.517678e+003,4.326126e+000
1.518642e+003,4.060324e+000
1.519607e+003,5.125494e+000
1.520571e+003,5.827855e+000
1.521535e+003,6.181182e+000
1.522499e+003,5.875222e+000
1.523464e+003,5.594713e+000
1.524428e+003,6.366957e+000
1.525392e+003,7.191584e+000
1.526356e+003,7.033094e+000
1.527320e+003,6.341890e+000
1.528285e+003,5.976558e+000
1.529249e+003,6.229353e+000
1.530213e+003,7.406142e+000
1.531177e+003,8.159097e+000
1.532142e+003,7.637441e+000
1.533106e+003,7.291918e+000
1.534070e+003,7.171893e+000
1.535034e+003,7.497447e+000
1.535999e+003,7.969843e+000
1.536963e+003,8.206692e+000
1.537927e+003,8.351577e+000
1.538891e+003,8.586925e+000
1.539855e+003,9.110262e+000
1.540820e+003,9.973505e+000
1.541784e+003,1.068303e+001
1.542748e+003,1.077535e+001
1.543712e+003,1.095208e+001
1.544677e+003,1.167227e+001
1.545641e+003,1.190900e+001
1.546605e+003,1.183476e+001
1.547569e+003,1.298913e+001
1.548534e+003,1.445118e+001
1.549498e+003,1.505701e+001
1.550462e+003,1.526485e+001
1.551426e+003,1.551549e+001
1.552391e+003,1.638845e+001
1.553355e+003,1.809038e+001
1.554319e+003,1.957874e+001
1.555283e+003,1.996669e+001
1.556247e+003,2.024625e+001
1.557212e+003,2.074256e+001
1.558176e+003,2.220381e+001
1.559140e+003,2.461924e+001
1.560104e+003,2.700731e+001
1.561069e+003,2.930248e+001
1.562033e+003,3.123168e+001
1.562997e+003,3.327990e+001
1.563961e+003,3.584682e+001
1.564926e+003,3.868209e+001
1.565890e+003,4.158547e+001
1.566854e+003,4.465074e+001
1.567818e+003,4.815873e+001
1.568782e+003,5.288356e+001
1.569747e+003,5.928745e+001
1.570711e+003,6.527070e+001
1.571675e+003,7.068346e+001
1.572639e+003,7.690134e+001
1.573604e+003,8.446784e+001
1.574568e+003,9.460294e+001
1.575532e+003,1.056120e+002
1.576496e+003,1.156832e+002
1.577461e+003,1.281470e+002
1.578425e+003,1.442977e+002
1.579389e+003,1.613714e+002
1.580353e+003,1.781115e+002
1.581318e+003,1.964594e+002
1.582282e+003,2.170347e+002
1.583246e+003,2.373091e+002
1.584210e+003,2.567726e+002
1.585174e+003,2.739329e+002
1.586139e+003,2.871205e+002
1.587103e+003,2.951637e+002
1.588067e+003,2.968882e+002
1.589031e+003,2.914117e+002
1.589996e+003,2.800087e+002
1.590960e+003,2.639429e+002
1.591924e+003,2.456400e+002
1.592888e+003,2.264847e+002
1.593853e+003,2.057683e+002
1.594817e+003,1.840181e+002
1.595781e+003,1.639506e+002
1.596745e+003,1.460900e+002
1.597709e+003,1.306848e+002
1.598674e+003,1.171825e+002
1.599638e+003,1.048455e+002
1.600602e+003,9.384082e+001
1.601566e+003,8.441830e+001
1.602531e+003,7.593799e+001
1.603495e+003,6.835913e+001
1.604459e+003,6.204640e+001
1.605423e+003,5.668601e+001
1.606388e+003,5.168328e+001
1.607352e+003,4.708257e+001
1.608316e+003,4.339254e+001
1.609280e+003,4.044912e+001
1.610245e+003,3.757048e+001
1.611209e+003,3.462305e+001
1.612173e+003,3.135490e+001
1.613137e+003,2.865777e+001
1.614101e+003,2.753078e+001
1.615066e+003,2.563917e+001
1.616030e+003,2.312677e+001
1.616994e+003,2.140609e+001
1.617958e+003,2.024029e+001
1.618923e+003,1.915733e+001
1.619887e+003,1.807889e+001
1.620851e+003,1.706452e+001
1.621815e+003,1.615446e+001
1.622780e+003,1.533918e+001
1.623744e+003,1.457526e+001
1.624708e+003,1.382370e+001
1.625672e+003,1.307754e+001
1.626636e+003,1.232555e+001
1.627601e+003,1.171575e+001
1.628565e+003,1.122549e+001
1.629529e+003,1.039490e+001
1.630493e+003,9.654860e+000
1.631458e+003,9.777798e+000
1.632422e+003,9.738023e+000
1.633386e+003,8.744570e+000
1.634350e+003,7.674093e+000
1.635315e+003,7.057128e+000
1.636279e+003,6.908708e+000
1.637243e+003,7.037550e+000
1.638207e+003,7.039157e+000
1.639172e+003,6.744208e+000
1.640136e+003,6.241133e+000
1.641100e+003,5.669358e+000
1.642064e+003,5.701505e+000
1.643028e+003,5.920688e+000
1.643993e+003,5.880996e+000
1.644957e+003,5.468847e+000
1.645921e+003,4.172259e+000
1.646885e+003,3.894726e+000
1.647850e+003,4.605383e+000
1.648814e+003,5.114993e+000
1.649778e+003,5.010629e+000
1.650742e+003,3.955394e+000
1.651707e+003,2.899900e+000
1.652671e+003,3.350749e+000
1.653635e+003,4.374861e+000
1.654599e+003,3.949408e+000
1.655563e+003,3.011150e+000
1.656528e+003,2.509471e+000
1.657492e+003,2.562512e+000
1.658456e+003,3.663247e+000
1.659420e+003,3.821198e+000
1.660385e+003,3.260716e+000
1.661349e+003,2.675757e+000
1.662313e+003,2.372409e+000
1.663277e+003,2.851039e+000
1.664242e+003,3.301978e+000
1.665206e+003,3.153394e+000
1.666170e+003,2.784215e+000
1.667134e+003,2.549980e+000
1.668099e+003,2.448839e+000
1.669063e+003,2.450537e+000
1.670027e+003,2.470253e+000
1.670991e+003,2.472909e+000
1.671955e+003,2.386463e+000
1.672920e+003,2.186908e+000
1.673884e+003,1.704605e+000
1.674848e+003,1.526228e+000
1.675812e+003,2.834759e+000
1.676777e+003,3.365360e+000
1.677741e+003,2.180038e+000
1.678705e+003,1.443181e+000
1.679669e+003,1.446287e+000
1.680634e+003,1.823900e+000
1.681598e+003,2.159822e+000
1.682562e+003,2.061316e+000
1.683526e+003,1.622787e+000
1.684490e+003,1.180205e+000
1.685455e+003,1.038942e+000
1.686419e+003,1.497992e+000
1.687383e+003,1.947007e+000
1.688347e+003,1.884092e+000
1.689312e+003,1.426504e+000
1.690276e+003,2.458059e-001
1.691240e+003,6.580007e-001
1.692204e+003,1.876984e+000
1.693169e+003,2.074185e+000
1.694133e+003,1.781296e+000
1.695097e+003,1.256267e+000
1.696061e+003,1.059953e+000
1.697026e+003,1.406922e+000
1.697990e+003,1.574142e+000
1.698954e+003,1.314651e+000
1.699918e+003,9.884531e-001
1.700882e+003,8.699341e-001
1.701847e+003,1.257175e+000
1.702811e+003,1.910281e+000
1.703775e+003,1.501815e+000
1.704739e+003,5.285024e-001
1.705704e+003,3.945007e-002
1.706668e+003,-9.836833e-004
1.707632e+003,5.438009e-001
1.708596e+003,1.232283e+000
1.709561e+003,2.060523e+000
1.710525e+003,1.841759e+000
1.711489e+003,1.097203e+000
1.712453e+003,9.331411e-001
1.713417e+003,1.068012e+000
1.714382e+003,1.093673e+000
1.715346e+003,8.997558e-001
1.716310e+003,5.498210e-001
1.717274e+003,5.205576e-001
1.718239e+003,1.030848e+000
1.719203e+003,1.590749e+000
1.720167e+003,1.882395e+000
1.721131e+003,1.640674e+000
1.722096e+003,8.587433e-001
1.723060e+003,3.036499e-001
1.724024e+003,1.408569e-001
1.724988e+003,1.129845e+000
1.725953e+003,1.815573e+000
1.726917e+003,1.279183e+000
1.727881e+003,6.957682e-001
1.728845e+003,2.986633e-001
1.729809e+003,6.482300e-001
1.730774e+003,1.279181e+000
1.731738e+003,1.275471e+000
1.732702e+003,9.418467e-001
1.733666e+003,8.501984e-001
1.734631e+003,1.088224e+000
1.735595e+003,1.516611e+000
1.736559e+003,1.761030e+000
1.737523e+003,1.558273e+000
1.738488e+003,1.281033e+000
1.739452e+003,1.122065e+000
1.740416e+003,1.433160e+000
1.741380e+003,2.082112e+000
1.742344e+003,1.616066e+000
1.743309e+003,7.484049e-001
1.744273e+003,1.576345e-001
1.745237e+003,1.360280e-001
1.746201e+003,1.158508e+000
1.747166e+003,1.793135e+000
1.748130e+003,1.873656e+000
1.749094e+003,1.735289e+000
1.750058e+003,1.597201e+000
1.751023e+003,1.562471e+000
1.751987e+003,1.689202e+000
1.752951e+003,2.011027e+000
1.753915e+003,2.151260e+000
1.754880e+003,1.774681e+000
1.755844e+003,1.357531e+000
1.756808e+003,1.285117e+000
1.757772e+003,1.597986e+000
1.758736e+003,2.343104e+000
1.759701e+003,2.112294e+000
1.760665e+003,1.240000e+000
1.761629e+003,1.090110e+000
1.762593e+003,1.475351e+000
1.763558e+003,2.798216e+000
1.764522e+003,3.340413e+000
1.765486e+003,2.553252e+000
1.766450e+003,1.530742e+000
1.767415e+003,8.166311e-001
1.768379e+003,1.402640e+000
1.769343e+003,2.372097e+000
1.770307e+003,2.304698e+000
1.771271e+003,1.421615e+000
1.772236e+003,4.534495e-001
1.773200e+003,8.709819e-002
1.774164e+003,7.119212e-001
1.775128e+003,1.361546e+000
1.776093e+003,1.470898e+000
1.777057e+003,1.232868e+000
1.778021e+003,7.406861e-001
1.778985e+003,9.006795e-001
1.779950e+003,1.304915e+000
1.780914e+003,1.049035e+000
1.781878e+003,5.956075e-001
1.782842e+003,-1.204885e-001
1.783807e+003,1.606242e-003
1.784771e+003,1.025335e+000
1.785735e+003,1.475820e+000
1.786699e+003,1.366669e+000
1.787663e+003,9.273417e-001
1.788628e+003,5.807312e-001
1.789592e+003,7.360169e-001
1.790556e+003,9.760437e-001
1.791520e+003,9.444458e-001
1.792485e+003,8.773356e-001
1.793449e+003,9.047221e-001
1.794413e+003,8.669525e-001
1.795377e+003,7.350362e-001
1.796342e+003,6.545420e-001
1.797306e+003,5.071299e-001
1.798270e+003,-1.297445e-001
1.799234e+003,-6.756836e-001
1.800198e+003,-3.635000e-001
1.801163e+003,1.874278e-001
1.802127e+003,1.061070e+000
1.803091e+003,1.035710e+000
1.804055e+003,3.195618e-001
1.805020e+003,-4.966858e-001
1.805984e+003,-8.254964e-001
1.806948e+003,4.129415e-001
1.807912e+003,1.401829e+000
1.808877e+003,1.018946e+000
1.809841e+003,1.907684e-001
1.810805e+003,-3.782918e-001
1.811769e+003,-2.206258e-001
1.812734e+003,3.806590e-001
1.813698e+003,5.529917e-001
1.814662e+003,1.396596e-001
1.815626e+003,-5.337311e-001
1.816590e+003,-8.217824e-001
1.817555e+003,8.748169e-002
1.818519e+003,8.761902e-001
1.819483e+003,5.709513e-001
1.820447e+003,1.754435e-001
1.821412e+003,-1.329753e-001
1.822376e+003,4.604655e-001
1.823340e+003,1.320796e+000
1.824304e+003,5.347840e-001
1.825269e+003,-3.843404e-001
1.826233e+003,-6.230367e-001
1.827197e+003,-4.612274e-001
1.828161e+003,4.759725e-003
1.829126e+003,2.969676e-001
1.830090e+003,2.800700e-001
1.831054e+003,-3.278320e-001
1.832018e+003,-8.846944e-001
1.832983e+003,-5.198415e-001
1.833947e+003,1.987834e-001
1.834911e+003,5.430105e-001
1.835875e+003,3.394898e-001
1.836839e+003,-2.632487e-001
1.837804e+003,-5.214996e-001
1.838768e+003,-2.256032e-001
1.839732e+003,9.665120e-002
1.840696e+003,2.835521e-001
1.841661e+003,4.198609e-002
1.842625e+003,-3.227071e-001
1.843589e+003,-4.709839e-001
1.844553e+003,-3.879028e-001
1.845518e+003,1.372233e-001
1.846482e+003,1.108917e-001
1.847446e+003,-2.764862e-001
1.848410e+003,-2.761841e-002
1.849375e+003,3.698985e-001
1.850339e+003,4.165477e-001
1.851303e+003,3.305562e-001
1.852267e+003,2.196269e-001
1.853231e+003,5.345662e-002
1.854196e+003,-8.428853e-002
1.855160e+003,1.910522e-001
1.856124e+003,5.695577e-001
1.857088e+003,4.428975e-001
1.858053e+003,-1.682383e-001
1.859017e+003,-9.513784e-001
1.859981e+003,-1.048261e+000
1.860945e+003,-3.137004e-002
1.861910e+003,6.740377e-001
1.862874e+003,3.369466e-001
1.863838e+003,-4.473297e-001
1.864802e+003,-1.286061e+000
1.865766e+003,-4.965973e-001
1.866731e+003,8.332367e-001
1.867695e+003,7.590210e-001
1.868659e+003,1.617198e-001
1.869623e+003,-8.092143e-001
1.870588e+003,-8.476918e-001
1.871552e+003,1.024750e-001
1.872516e+003,4.196981e-001
1.873480e+003,2.789378e-001
1.874445e+003,-3.388306e-001
1.875409e+003,-6.654145e-001
1.876373e+003,3.347778e-002
1.877337e+003,3.460287e-001
1.878302e+003,6.400554e-003
1.879266e+003,-1.258931e-001
1.880230e+003,3.665975e-002
1.881194e+003,1.695058e-001
1.882158e+003,2.269643e-001
1.883123e+003,2.822469e-001
1.884087e+003,2.236094e-001
1.885051e+003,-1.066488e-002
1.886015e+003,-2.998973e-001
1.886980e+003,-4.594330e-001
1.887944e+003,-2.604879e-002
1.888908e+003,8.474477e-001
1.889872e+003,7.257131e-001
1.890837e+003,4.249471e-002
1.891801e+003,-1.414805e-001
1.892765e+003,-2.335246e-001
1.893729e+003,-6.097310e-001
1.894693e+003,-6.424398e-001
1.895658e+003,-8.815511e-002
1.896622e+003,-1.166229e-001
1.897586e+003,-4.380381e-001
1.898550e+003,-6.038656e-001
1.899515e+003,-4.751109e-001
1.900479e+003,4.186116e-001
1.901443e+003,5.600820e-001
1.902407e+003,-2.661916e-001
1.903372e+003,-2.349640e-001
1.904336e+003,3.950796e-001
1.905300e+003,5.949015e-001
1.906264e+003,4.366120e-001
1.907229e+003,7.996318e-002
1.908193e+003,5.670268e-002
1.909157e+003,4.943075e-001
1.910121e+003,5.798432e-001
1.911085e+003,8.162842e-002
1.912050e+003,-6.129069e-001
1.913014e+003,-1.073577e+000
1.913978e+003,-7.800191e-001
1.914942e+003,-2.136342e-001
1.915907e+003,-2.058034e-001
1.916871e+003,-1.605194e-001
1.917835e+003,3.502462e-001
1.918799e+003,6.723155e-001
1.919764e+003,5.968851e-001
1.920728e+003,2.587158e-001
1.921692e+003,-2.096303e-001
1.922656e+003,-4.750386e-001
1.923620e+003,-4.850108e-001
1.924585e+003,-6.347656e-002
1.925549e+003,3.208700e-001
1.926513e+003,6.294464e-001
1.927477e+003,4.293233e-001
1.928442e+003,-1.061707e-002
1.929406e+003,-2.344503e-001
1.930370e+003,-2.282033e-001
1.931334e+003,2.205831e-001
1.932299e+003,2.755636e-001
1.933263e+003,-2.156026e-001
1.934227e+003,-3.066793e-001
1.935191e+003,1.050517e-002
1.936156e+003,3.343587e-001
1.937120e+003,5.884023e-001
1.938084e+003,8.937673e-001
1.939048e+003,7.667277e-001
1.940012e+003,1.154073e-001
1.940977e+003,1.637899e-001
1.941941e+003,1.014128e+000
1.942905e+003,1.197105e+000
1.943869e+003,5.704224e-001
1.944834e+003,-1.770528e-002
1.945798e+003,-2.824697e-001
1.946762e+003,-1.302592e-002
1.947726e+003,2.451945e-001
1.948691e+003,1.060384e-001
1.949655e+003,-1.017893e-001
1.950619e+003,-3.106099e-001
1.951583e+003,-5.521627e-001
1.952547e+003,-5.986165e-001
1.953512e+003,1.839854e-001
1.954476e+003,6.716817e-001
1.955440e+003,-3.323680e-001
1.956404e+003,-5.757568e-001
1.957369e+003,4.433095e-001
1.958333e+003,7.936747e-001
1.959297e+003,7.268453e-001
1.960261e+003,4.876221e-001
1.961226e+003,3.571431e-001
1.962190e+003,5.672557e-001
1.963154e+003,7.500722e-001
1.964118e+003,8.148875e-001
1.965083e+003,5.811920e-001
1.966047e+003,2.631755e-001
1.967011e+003,1.358714e-001
1.967975e+003,2.634878e-001
1.968939e+003,8.045441e-001
1.969904e+003,7.778778e-001
1.970868e+003,2.512614e-004
1.971832e+003,-5.763052e-001
1.972796e+003,-6.193054e-001
1.973761e+003,-1.596588e-001
1.974725e+003,3.189616e-001
1.975689e+003,2.753977e-001
1.976653e+003,1.420756e-001
1.977618e+003,3.141744e-001
1.978582e+003,4.559214e-001
1.979546e+003,4.305044e-001
1.980510e+003,4.798696e-001
1.981474e+003,4.741374e-001
1.982439e+003,-2.056783e-002
1.983403e+003,-1.851390e-001
1.984367e+003,9.127421e-001
1.985331e+003,1.519324e+000
1.986296e+003,7.131236e-001
1.987260e+003,6.441548e-002
1.988224e+003,-1.590749e-001
1.989188e+003,3.138224e-001
1.990153e+003,8.106903e-001
1.991117e+003,3.032837e-001
1.992081e+003,-1.734497e-001
1.993045e+003,-2.261902e-001
1.994010e+003,5.363363e-002
1.994974e+003,5.678853e-001
1.995938e+003,9.151693e-001
1.996902e+003,9.944540e-001
1.997866e+003,4.122142e-001
1.998831e+003,9.898987e-002
1.999795e+003,4.422373e-001
2.000759e+003,7.817180e-001
2.001723e+003,9.871145e-001
2.002688e+003,9.791117e-001
2.003652e+003,8.390360e-001
2.004616e+003,4.810181e-001
2.005580e+003,5.091797e-001
2.006545e+003,1.117091e+000
2.007509e+003,8.936615e-001
2.008473e+003,1.800130e-002
2.009437e+003,-1.742889e-001
2.010401e+003,2.011719e-001
2.011366e+003,7.284861e-001
2.012330e+003,8.102732e-001
2.013294e+003,2.605621e-001
2.014258e+003,8.377381e-002
2.015223e+003,4.379425e-001
2.016187e+003,2.730876e-001
2.017151e+003,-2.256256e-001
2.018115e+003,-1.185120e-001
2.019080e+003,2.080221e-001
2.020044e+003,1.545766e-001
2.021008e+003,7.437134e-002
2.021972e+003,1.886444e-001
2.022937e+003,4.351929e-001
2.023901e+003,6.043823e-001
2.024865e+003,8.212077e-002
2.025829e+003,-3.434764e-001
2.026793e+003,5.156240e-001
2.027758e+003,1.190459e+000
2.028722e+003,7.856110e-001
2.029686e+003,3.776866e-001
2.030650e+003,2.217692e-001
2.031615e+003,7.116323e-001
2.032579e+003,1.158234e+000
2.033543e+003,3.322917e-001
2.034507e+003,-2.652222e-001
2.035472e+003,2.634094e-001
2.036436e+003,6.539571e-001
2.037400e+003,8.177612e-001
2.038364e+003,8.840434e-001
2.039328e+003,8.492462e-001
2.040293e+003,6.397542e-001
2.041257e+003,4.594716e-001
2.042221e+003,2.861043e-001
2.043185e+003,5.819895e-001
2.044150e+003,1.100012e+000
2.045114e+003,7.481567e-001
2.046078e+003,2.894908e-001
2.047042e+003,6.037710e-001
2.048007e+003,8.298950e-001
2.048971e+003,6.612518e-001
2.049935e+003,5.742086e-001
2.050899e+003,5.630046e-001
2.051864e+003,3.206187e-001
2.052828e+003,1.196706e-001
2.053792e+003,3.430572e-001
2.054756e+003,5.041565e-001
2.055720e+003,3.997182e-001
2.056685e+003,8.519796e-002
2.057649e+003,-1.968302e-001
2.058613e+003,-1.221822e-002
2.059577e+003,3.031321e-001
2.060542e+003,3.693481e-001
2.061506e+003,-7.776896e-003
2.062470e+003,-6.023814e-001
2.063434e+003,-2.134969e-001
2.064399e+003,7.677134e-001
2.065363e+003,6.872823e-001
2.066327e+003,-1.739390e-001
2.067291e+003,-8.806147e-001
2.068256e+003,-9.033000e-001
2.069220e+003,-1.923808e-001
2.070184e+003,4.126607e-001
2.071148e+003,5.070353e-001
2.072113e+003,-1.022847e-002
2.073077e+003,-5.832255e-001
2.074041e+003,-2.482198e-001
2.075005e+003,3.996358e-001
2.075969e+003,6.567912e-001
2.076934e+003,-5.134379e-002
2.077898e+003,-1.401568e+000
2.078862e+003,-1.273192e+000
2.079826e+003,-9.898580e-002
2.080791e+003,4.374044e-001
2.081755e+003,3.979899e-001
2.082719e+003,-9.980977e-002
2.083683e+003,-5.207967e-001
2.084647e+003,-6.067566e-001
2.085612e+003,1.392660e-001
2.086576e+003,9.277384e-001
2.087540e+003,1.335785e-001
2.088504e+003,-5.640411e-001
2.089469e+003,-5.065918e-004
2.090433e+003,6.087097e-001
2.091397e+003,9.895427e-001
2.092361e+003,4.996969e-001
2.093326e+003,-3.098602e-001
2.094290e+003,-5.937093e-001
2.095254e+003,-4.108653e-001
2.096218e+003,4.483561e-001
2.097183e+003,5.693705e-001
2.098147e+003,-7.533570e-002
2.099111e+003,-7.741277e-001
2.100075e+003,-1.108284e+000
2.101040e+003,-1.785665e-001
2.102004e+003,3.749715e-001
2.102968e+003,-2.016673e-001
2.103932e+003,-8.283513e-001
2.104896e+003,-1.325574e+000
2.105861e+003,-8.771123e-001
2.106825e+003,-2.465627e-001
2.107789e+003,8.969930e-002
2.108753e+003,3.485209e-002
2.109718e+003,-4.989807e-001
2.110682e+003,-3.048991e-001
2.111646e+003,2.557953e-001
2.112610e+003,5.944916e-001
2.113574e+003,4.749369e-001
2.114539e+003,-7.578023e-001
2.115503e+003,-9.587789e-001
2.116467e+003,2.848104e-002
2.117431e+003,8.309082e-001
2.118396e+003,1.052382e+000
2.119360e+003,-4.918213e-002
2.120324e+003,-8.114700e-001
2.121288e+003,-1.658203e-001
2.122253e+003,2.588949e-001
2.123217e+003,1.200775e-001
2.124181e+003,-7.836894e-001
2.125145e+003,-1.592269e+000
2.126110e+003,-1.261168e+000
2.127074e+003,-7.827281e-001
2.128038e+003,-6.320302e-001
2.129002e+003,-7.258504e-001
2.129967e+003,-8.833669e-001
2.130931e+003,-9.016271e-001
2.131895e+003,-7.133281e-001
2.132859e+003,-5.682475e-002
2.133823e+003,9.574280e-002
2.134788e+003,-5.031118e-001
2.135752e+003,-1.165511e+000
2.136716e+003,-1.372596e+000
2.137680e+003,-4.057261e-001
2.138645e+003,5.485311e-001
2.139609e+003,4.657196e-001
2.140573e+003,-4.686686e-002
2.141537e+003,-4.193482e-001
2.142501e+003,1.460368e-002
2.143466e+003,7.084371e-001
2.144430e+003,6.359019e-001
2.145394e+003,2.031026e-001
2.146358e+003,-1.080892e-001
2.147323e+003,-1.145488e-001
2.148287e+003,4.492289e-002
2.149251e+003,2.702840e-003
2.150215e+003,-3.388082e-001
2.151180e+003,-1.169279e+000
2.152144e+003,-1.329159e+000
2.153108e+003,-3.130615e-001
2.154072e+003,5.773651e-001
2.155037e+003,6.457784e-001
2.156001e+003,-5.293935e-001
2.156965e+003,-1.577807e+000
2.157929e+003,-9.418558e-001
2.158894e+003,-2.245158e-001
2.159858e+003,-4.502838e-001
2.160822e+003,-6.694366e-001
2.161786e+003,-6.196147e-001
2.162750e+003,-6.700618e-001
2.163715e+003,-5.767883e-001
2.164679e+003,-5.471802e-002
2.165643e+003,5.677022e-001
2.166607e+003,9.287211e-001
2.167572e+003,6.702341e-001
2.168536e+003,1.224121e-001
2.169500e+003,3.280436e-002
2.170464e+003,-2.711019e-001
2.171428e+003,-1.224706e+000
2.172393e+003,-1.425780e+000
2.173357e+003,-5.726847e-001
2.174321e+003,4.433156e-001
2.175285e+003,9.531952e-001
2.176250e+003,4.714671e-001
2.177214e+003,-1.072886e-001
2.178178e+003,-6.527404e-002
2.179142e+003,3.235484e-001
2.180107e+003,6.094391e-001
2.181071e+003,2.760722e-002
2.182035e+003,-8.176239e-001
2.182999e+003,-9.133611e-001
2.183964e+003,-5.437439e-001
2.184928e+003,-7.208150e-002
2.185892e+003,2.688110e-001
2.186856e+003,2.648305e-001
2.187821e+003,-3.174937e-001
2.188785e+003,-7.141932e-001
2.189749e+003,-2.323720e-001
2.190713e+003,4.935282e-001
2.191677e+003,8.789032e-001
2.192642e+003,1.839620e-001
2.193606e+003,-6.040095e-001
2.194570e+003,2.023671e-001
2.195534e+003,9.928049e-001
2.196499e+003,5.512258e-001
2.197463e+003,-2.896749e-001
2.198427e+003,-8.049352e-001
2.199391e+003,-1.860260e-001
2.200355e+003,6.177755e-001
2.201320e+003,3.073792e-001
2.202284e+003,-1.967936e-001
2.203248e+003,-3.215546e-001
2.204212e+003,-3.494700e-001
2.205177e+003,-2.144318e-001
2.206141e+003,3.230194e-001
2.207105e+003,6.137685e-001
2.208069e+003,2.062988e-001
2.209034e+003,-1.057444e-001
2.209998e+003,-7.830607e-002
2.210962e+003,-1.659465e-001
2.211926e+003,-7.308451e-002
2.212891e+003,5.957652e-001
2.213855e+003,7.871348e-001
2.214819e+003,1.683217e-001
2.215783e+003,7.924601e-002
2.216748e+003,4.446431e-001
2.217712e+003,2.037048e-001
2.218676e+003,-1.816925e-001
2.219640e+003,-1.168559e-001
2.220604e+003,8.246969e-002
2.221569e+003,1.765381e-001
2.222533e+003,5.372823e-002
2.223497e+003,-2.727092e-001
2.224461e+003,-6.788940e-001
2.225426e+003,-5.944560e-001
2.226390e+003,1.133779e-001
2.227354e+003,7.902730e-001
2.228318e+003,9.403595e-001
2.229282e+003,-4.372966e-002
2.230247e+003,-8.694407e-001
2.231211e+003,-3.751262e-001
2.232175e+003,-5.993652e-002
2.233139e+003,-4.709290e-001
2.234104e+003,-1.035550e+000
2.235068e+003,-1.135076e+000
2.236032e+003,-2.561208e-001
2.236996e+003,3.566528e-001
2.237961e+003,1.154989e-002
2.238925e+003,-5.546895e-001
2.239889e+003,-7.984950e-001
2.240853e+003,-1.971242e-001
2.241818e+003,3.508402e-001
2.242782e+003,7.079773e-002
2.243746e+003,-2.363942e-001
2.244710e+003,-2.002543e-001
2.245675e+003,3.081868e-002
2.246639e+003,2.067017e-001
2.247603e+003,9.950663e-002
2.248567e+003,-1.822825e-001
2.249531e+003,-3.980428e-001
2.250496e+003,-4.927165e-002
2.251460e+003,6.871958e-001
2.252424e+003,1.617084e+000
2.253388e+003,1.772382e+000
2.254353e+003,5.792735e-001
2.255317e+003,-5.254181e-001
2.256281e+003,-9.344162e-001
2.257245e+003,-6.646423e-001
2.258209e+003,-2.769714e-001
2.259174e+003,-3.897715e-001
2.260138e+003,-4.229146e-001
2.261102e+003,-1.697978e-001
2.262066e+003,-2.503428e-001
2.263031e+003,-4.739471e-001
2.263995e+003,-2.022542e-001
2.264959e+003,4.101257e-002
2.265923e+003,-1.814860e-001
2.266888e+003,-1.411926e-001
2.267852e+003,2.346466e-001
2.268816e+003,7.671865e-001
2.269780e+003,8.724640e-001
2.270745e+003,-4.680603e-001
2.271709e+003,-9.707276e-001
2.272673e+003,-3.637492e-002
2.273637e+003,3.402130e-001
2.274602e+003,5.305888e-002
2.275566e+003,-8.233709e-001
2.276530e+003,-1.264162e+000
2.277494e+003,-4.304464e-001
2.278458e+003,-2.321981e-002
2.279423e+003,-1.312235e-001
2.280387e+003,-1.893361e-001
2.281351e+003,-8.474834e-002
2.282315e+003,4.731221e-001
2.283280e+003,5.579824e-001
2.284244e+003,-8.997192e-002
2.285208e+003,-5.124817e-001
2.286172e+003,-6.463125e-001
2.287136e+003,-4.863419e-001
2.288101e+003,-1.235972e-001
2.289065e+003,7.630066e-001
2.290029e+003,6.302683e-001
2.290993e+003,-3.304840e-001
2.291958e+003,-5.197652e-001
2.292922e+003,-4.304962e-001
2.293886e+003,-4.710485e-001
2.294850e+003,-4.529348e-001
2.295815e+003,-3.287272e-001
2.296779e+003,-2.927490e-001
2.297743e+003,-2.652435e-001
2.298707e+003,-7.461039e-002
2.299672e+003,1.644999e-002
2.300636e+003,-1.777791e-001
2.301600e+003,-5.883789e-003
2.302564e+003,3.888326e-001
2.303529e+003,1.003927e-001
2.304493e+003,-4.618225e-002
2.305457e+003,7.218801e-001
2.306421e+003,7.434438e-001
2.307385e+003,-3.374227e-001
2.308350e+003,-4.208445e-001
2.309314e+003,1.495188e-001
2.310278e+003,6.840566e-001
2.311242e+003,4.290283e-001
2.312207e+003,-7.063960e-001
2.313171e+003,-5.049469e-001
2.314135e+003,5.916290e-001
2.315099e+003,4.889832e-001
2.316063e+003,-3.976837e-001
2.317028e+003,-1.395560e+000
2.317992e+003,-1.064568e+000
2.318956e+003,1.280904e-001
2.319921e+003,-1.862925e-001
2.320885e+003,-8.690714e-001
2.321849e+003,-5.794439e-001
2.322813e+003,-8.904826e-002
2.323778e+003,1.756175e-001
2.324742e+003,1.105509e-001
2.325706e+003,-5.237834e-003
2.326670e+003,1.423594e-001
2.327635e+003,1.784892e-001
2.328599e+003,-3.734538e-002
2.329563e+003,-3.363210e-001
2.330527e+003,-5.894058e-001
2.331491e+003,-7.345571e-001
2.332456e+003,-5.021561e-001
2.333420e+003,1.528066e-001
2.334384e+003,1.141124e+000
2.335348e+003,1.854005e+000
2.336313e+003,1.347539e+000
2.337277e+003,7.063059e-001
2.338241e+003,6.119822e-001
2.339205e+003,4.386403e-001
2.340169e+003,2.229472e-001
2.341134e+003,6.351542e-001
2.342098e+003,8.756541e-001
2.343062e+003,1.072764e-001
2.344026e+003,-4.307541e-001
2.344991e+003,-3.778188e-001
2.345955e+003,8.253428e-001
2.346919e+003,1.757856e+000
2.347883e+003,4.979187e-001
2.348848e+003,-3.976593e-001
2.349812e+003,-2.033620e-001
2.350776e+003,9.581401e-001
2.351740e+003,1.935462e+000
2.352705e+003,1.989746e-002
2.353669e+003,-1.335485e+000
2.354633e+003,9.024353e-002
2.355597e+003,5.512736e-001
2.356562e+003,2.279348e-001
2.357526e+003,1.595764e-001
2.358490e+003,3.109700e-001
2.359454e+003,7.656728e-001
2.360418e+003,7.383921e-001
2.361383e+003,1.391876e-001
2.362347e+003,2.347819e-001
2.363311e+003,5.170553e-001
2.364275e+003,3.400096e-001
2.365240e+003,1.215637e-001
2.366204e+003,5.576172e-002
2.367168e+003,2.874705e-001
2.368132e+003,5.111969e-001
2.369096e+003,2.068634e-001
2.370061e+003,2.289001e-001
2.371025e+003,8.148234e-001
2.371989e+003,4.546417e-001
2.372953e+003,-5.131928e-001
2.373918e+003,-5.600510e-001
2.374882e+003,-2.147085e-001
2.375846e+003,-9.435018e-003
2.376810e+003,-8.100179e-002
2.377775e+003,-2.152445e-001
2.378739e+003,3.519694e-004
2.379703e+003,6.156464e-001
2.380667e+003,1.332318e+000
2.381632e+003,1.167252e+000
2.382596e+003,3.822876e-001
2.383560e+003,-1.762858e-001
2.384524e+003,-1.419067e-001
2.385489e+003,5.279459e-001
2.386453e+003,8.671051e-001
2.387417e+003,6.848694e-001
2.388381e+003,5.293579e-002
2.389345e+003,-3.036377e-001
2.390310e+003,4.368001e-001
2.391274e+003,8.470917e-001
2.392238e+003,6.338674e-001
2.393202e+003,-2.564402e-001
2.394167e+003,-8.632228e-001
2.395131e+003,2.369375e-001
2.396095e+003,8.305237e-001
2.397059e+003,2.189891e-001
2.398023e+003,-5.489706e-002
2.398988e+003,3.159688e-002
2.399952e+003,5.953074e-001
2.400916e+003,1.000299e+000
2.401880e+003,9.617289e-001
2.402845e+003,7.380300e-001
2.403809e+003,4.817424e-001
2.404773e+003,6.165253e-001
2.405737e+003,7.619690e-001
2.406702e+003,6.616333e-001
2.407666e+003,6.859100e-001
2.408630e+003,9.236511e-001
2.409594e+003,1.292400e+000
2.410559e+003,1.517154e+000
2.411523e+003,1.339458e+000
2.412487e+003,7.267416e-001
2.413451e+003,1.928070e-001
2.414416e+003,1.033518e+000
2.415380e+003,2.219877e+000
2.416344e+003,2.485017e+000
2.417308e+003,2.331228e+000
2.418272e+003,2.063174e+000
2.419237e+003,1.657450e+000
2.420201e+003,1.301494e+000
2.421165e+003,1.158676e+000
2.422129e+003,1.375406e+000
2.423094e+003,1.630920e+000
2.424058e+003,8.573741e-001
2.425022e+003,3.604197e-001
2.425986e+003,1.638431e+000
2.426950e+003,2.763384e+000
2.427915e+003,3.079580e+000
2.428879e+003,2.081043e+000
2.429843e+003,1.118524e+000
2.430807e+003,1.734522e+000
2.431772e+003,2.389501e+000
2.432736e+003,2.695008e+000
2.433700e+003,2.308537e+000
2.434664e+003,2.006299e+000
2.435629e+003,3.104083e+000
2.436593e+003,4.031441e+000
2.437557e+003,4.224575e+000
2.438521e+003,4.237987e+000
2.439486e+003,4.190353e+000
2.440450e+003,4.295503e+000
2.441414e+003,5.032053e+000
2.442378e+003,6.552766e+000
2.443343e+003,7.206511e+000
2.444307e+003,7.042509e+000
2.445271e+003,7.134232e+000
2.446235e+003,7.588235e+000
2.447199e+003,8.248932e+000
2.448164e+003,8.163224e+000
2.449128e+003,7.741796e+000
2.450092e+003,8.181955e+000
2.451056e+003,8.598906e+000
2.452021e+003,8.488362e+000
2.452985e+003,8.887079e+000
2.453949e+003,9.416879e+000
2.454913e+003,8.890661e+000
2.455877e+003,8.215714e+000
2.456842e+003,7.965847e+000
2.457806e+003,7.798853e+000
2.458770e+003,7.615319e+000
2.459734e+003,7.242012e+000
2.460699e+003,7.321688e+000
2.461663e+003,8.377470e+000
2.462627e+003,8.697593e+000
2.463591e+003,8.228888e+000
2.464556e+003,6.733261e+000
2.465520e+003,5.913025e+000
2.466484e+003,7.111196e+000
2.467448e+003,7.648638e+000
2.468413e+003,7.357516e+000
2.469377e+003,6.547431e+000
2.470341e+003,6.187257e+000
2.471305e+003,7.043238e+000
2.472270e+003,7.265083e+000
2.473234e+003,6.524396e+000
2.474198e+003,5.940239e+000
2.475162e+003,5.964112e+000
2.476126e+003,6.751236e+000
2.477091e+003,7.168911e+000
2.478055e+003,6.797822e+000
2.479019e+003,5.664565e+000
2.479983e+003,4.888210e+000
2.480948e+003,5.288956e+000
2.481912e+003,6.121017e+000
2.482876e+003,6.627307e+000
2.483840e+003,6.021609e+000
2.484804e+003,5.250345e+000
2.485769e+003,4.982100e+000
2.486733e+003,5.311828e+000
2.487697e+003,5.674422e+000
2.488661e+003,4.719557e+000
2.489626e+003,3.930904e+000
2.490590e+003,4.642238e+000
2.491554e+003,4.880205e+000
2.492518e+003,4.585742e+000
2.493483e+003,4.348851e+000
2.494447e+003,4.017812e+000
2.495411e+003,3.385520e+000
2.496375e+003,3.274474e+000
2.497340e+003,3.677517e+000
2.498304e+003,3.623757e+000
2.499268e+003,3.222348e+000
2.500232e+003,2.672601e+000
2.501197e+003,2.766021e+000
2.502161e+003,3.468871e+000
2.503125e+003,3.790513e+000
2.504089e+003,3.281581e+000
2.505053e+003,2.136222e+000
2.506018e+003,2.312213e+000
2.506982e+003,3.461778e+000
2.507946e+003,3.622954e+000
2.508910e+003,3.371925e+000
2.509875e+003,3.357555e+000
2.510839e+003,3.581557e+000
2.511803e+003,3.677398e+000
2.512767e+003,2.920391e+000
2.513731e+003,2.291110e+000
2.514696e+003,2.332801e+000
2.515660e+003,2.507427e+000
2.516624e+003,2.758896e+000
2.517588e+003,3.426415e+000
2.518553e+003,3.660709e+000
2.519517e+003,2.830010e+000
2.520481e+003,2.453971e+000
2.521445e+003,2.593539e+000
2.522410e+003,3.109718e+000
2.523374e+003,3.445173e+000
2.524338e+003,3.254649e+000
2.525302e+003,2.954415e+000
2.526267e+003,2.702848e+000
2.527231e+003,2.704810e+000
2.528195e+003,2.883847e+000
2.529159e+003,3.071178e+000
2.530124e+003,2.961607e+000
2.531088e+003,2.713679e+000
2.532052e+003,2.669322e+000
2.533016e+003,2.805871e+000
2.533980e+003,2.924369e+000
2.534945e+003,2.332741e+000
2.535909e+003,1.784046e+000
2.536873e+003,2.552405e+000
2.537837e+003,3.150099e+000
2.538802e+003,3.079894e+000
2.539766e+003,2.145713e+000
2.540730e+003,1.335474e+000
2.541694e+003,2.279320e+000
2.542658e+003,3.141858e+000
2.543623e+003,3.490031e+000
2.544587e+003,2.847520e+000
2.545551e+003,2.279452e+000
2.546515e+003,3.355397e+000
2.547480e+003,3.919900e+000
2.548444e+003,3.178391e+000
2.549408e+003,2.155112e+000
2.550372e+003,1.856079e+000
2.551337e+003,3.084645e+000
2.552301e+003,3.585921e+000
2.553265e+003,2.945437e+000
2.554229e+003,2.675353e+000
2.555194e+003,2.977230e+000
2.556158e+003,3.638388e+000
2.557122e+003,3.923249e+000
2.558086e+003,3.759604e+000
2.559051e+003,3.376363e+000
2.560015e+003,3.121857e+000
2.560979e+003,3.241450e+000
2.561943e+003,3.406723e+000
2.562907e+003,3.501694e+000
2.563872e+003,3.138728e+000
2.564836e+003,3.005957e+000
2.565800e+003,3.614136e+000
2.566764e+003,3.683758e+000
2.567729e+003,3.212716e+000
2.568693e+003,2.963856e+000
2.569657e+003,3.171314e+000
2.570621e+003,3.816225e+000
2.571585e+003,3.899394e+000
2.572550e+003,3.592797e+000
2.573514e+003,3.692351e+000
2.574478e+003,3.511186e+000
2.575442e+003,2.925271e+000
2.576407e+003,2.893175e+000
2.577371e+003,3.319256e+000
2.578335e+003,3.983245e+000
2.579299e+003,4.072031e+000
2.580264e+003,3.636482e+000
2.581228e+003,4.012267e+000
2.582192e+003,4.653388e+000
2.583156e+003,5.102126e+000
2.584121e+003,4.594731e+000
2.585085e+003,3.155050e+000
2.586049e+003,3.611286e+000
2.587013e+003,4.675375e+000
2.587978e+003,4.997699e+000
2.588942e+003,4.748404e+000
2.589906e+003,4.286200e+000
2.590870e+003,4.874511e+000
2.591834e+003,5.394359e+000
2.592799e+003,4.882286e+000
2.593763e+003,4.773949e+000
2.594727e+003,5.134340e+000
2.595691e+003,4.926959e+000
2.596656e+003,5.096644e+000
2.597620e+003,5.999198e+000
2.598584e+003,6.005777e+000
2.599548e+003,5.532445e+000
2.600512e+003,5.509055e+000
2.601477e+003,6.119622e+000
2.602441e+003,7.544240e+000
2.603405e+003,6.821103e+000
2.604369e+003,5.610003e+000
2.605334e+003,6.400154e+000
2.606298e+003,7.147489e+000
2.607262e+003,7.154760e+000
2.608226e+003,6.795962e+000
2.609191e+003,6.659948e+000
2.610155e+003,7.388150e+000
2.611119e+003,7.792766e+000
2.612083e+003,7.684644e+000
2.613048e+003,8.082274e+000
2.614012e+003,8.357664e+000
2.614976e+003,7.996735e+000
2.615940e+003,8.257719e+000
2.616905e+003,8.946592e+000
2.617869e+003,9.070210e+000
2.618833e+003,8.929287e+000
2.619797e+003,8.672758e+000
2.620761e+003,9.468573e+000
2.621726e+003,1.064738e+001
2.622690e+003,1.081720e+001
2.623654e+003,1.045098e+001
2.624618e+003,9.635907e+000
2.625583e+003,1.046990e+001
2.626547e+003,1.190106e+001
2.627511e+003,1.186491e+001
2.628475e+003,1.163706e+001
2.629439e+003,1.190567e+001
2.630404e+003,1.282059e+001
2.631368e+003,1.356109e+001
2.632332e+003,1.335411e+001
2.633296e+003,1.313953e+001
2.634261e+003,1.326560e+001
2.635225e+003,1.354916e+001
2.636189e+003,1.411697e+001
2.637153e+003,1.517497e+001
2.638118e+003,1.506303e+001
2.639082e+003,1.443607e+001
2.640046e+003,1.524282e+001
2.641010e+003,1.628746e+001
2.641975e+003,1.714289e+001
2.642939e+003,1.760798e+001
2.643903e+003,1.782683e+001
2.644867e+003,1.817833e+001
2.645832e+003,1.901194e+001
2.646796e+003,2.023957e+001
2.647760e+003,2.108934e+001
2.648724e+003,2.128399e+001
2.649688e+003,2.096721e+001
2.650653e+003,2.156943e+001
2.651617e+003,2.291908e+001
2.652581e+003,2.381463e+001
2.653545e+003,2.432150e+001
2.654510e+003,2.453133e+001
2.655474e+003,2.520682e+001
2.656438e+003,2.619587e+001
2.657402e+003,2.710605e+001
2.658367e+003,2.763206e+001
2.659331e+003,2.757083e+001
2.660295e+003,2.862609e+001
2.661259e+003,3.055345e+001
2.662224e+003,3.245464e+001
2.663188e+003,3.348538e+001
2.664152e+003,3.378201e+001
2.665116e+003,3.496687e+001
2.666081e+003,3.635324e+001
2.667045e+003,3.709976e+001
2.668009e+003,3.807314e+001
2.668973e+003,3.948621e+001
2.669938e+003,4.128903e+001
2.670902e+003,4.294246e+001
2.671866e+003,4.418004e+001
2.672830e+003,4.541199e+001
2.673794e+003,4.667226e+001
2.674759e+003,4.789640e+001
2.675723e+003,4.951202e+001
2.676687e+003,5.154883e+001
2.677651e+003,5.208535e+001
2.678615e+003,5.249319e+001
2.679580e+003,5.455782e+001
2.680544e+003,5.602591e+001
2.681508e+003,5.650724e+001
2.682472e+003,5.723988e+001
2.683437e+003,5.841176e+001
2.684401e+003,5.977839e+001
2.685365e+003,6.016557e+001
2.686329e+003,6.028059e+001
2.687294e+003,6.154148e+001
2.688258e+003,6.293596e+001
2.689222e+003,6.410611e+001
2.690186e+003,6.448263e+001
2.691151e+003,6.471558e+001
2.692115e+003,6.561944e+001
2.693079e+003,6.616718e+001
2.694043e+003,6.620399e+001
2.695008e+003,6.658073e+001
2.695972e+003,6.735853e+001
2.696936e+003,6.830074e+001
2.697900e+003,6.838985e+001
2.698865e+003,6.846961e+001
2.699829e+003,7.062438e+001
2.700793e+003,7.235423e+001
2.701757e+003,7.274513e+001
2.702721e+003,7.278352e+001
2.703686e+003,7.325010e+001
2.704650e+003,7.512763e+001
2.705614e+003,7.655840e+001
2.706578e+003,7.726968e+001
2.707542e+003,7.820548e+001
2.708507e+003,7.990981e+001
2.709471e+003,8.258341e+001
2.710435e+003,8.473631e+001
2.711399e+003,8.623110e+001
2.712364e+003,8.771349e+001
2.713328e+003,8.956435e+001
2.714292e+003,9.199157e+001
2.715256e+003,9.528074e+001
2.716221e+003,9.846581e+001
2.717185e+003,1.003702e+002
2.718149e+003,1.028249e+002
2.719113e+003,1.060046e+002
2.720078e+003,1.088753e+002
2.721042e+003,1.111075e+002
2.722006e+003,1.125761e+002
2.722970e+003,1.146096e+002
2.723935e+003,1.168801e+002
2.724899e+003,1.178910e+002
2.725863e+003,1.182409e+002
2.726827e+003,1.182598e+002
2.727792e+003,1.174705e+002
2.728756e+003,1.163089e+002
2.729720e+003,1.152588e+002
2.730684e+003,1.136981e+002
2.731648e+003,1.114809e+002
2.732613e+003,1.083559e+002
2.733577e+003,1.051745e+002
2.734541e+003,1.024533e+002
2.735505e+003,9.974345e+001
2.736469e+003,9.650449e+001
2.737434e+003,9.196157e+001
2.738398e+003,8.849785e+001
2.739362e+003,8.656408e+001
2.740326e+003,8.391641e+001
2.741291e+003,8.052544e+001
2.742255e+003,7.699667e+001
2.743219e+003,7.472609e+001
2.744183e+003,7.286532e+001
2.745148e+003,6.917884e+001
2.746112e+003,6.596214e+001
2.747076e+003,6.421629e+001
2.748040e+003,6.155748e+001
2.749005e+003,5.875179e+001
2.749969e+003,5.667660e+001
2.750933e+003,5.437270e+001
2.751897e+003,5.178799e+001
2.752862e+003,4.979995e+001
2.753826e+003,4.769702e+001
2.754790e+003,4.498334e+001
2.755754e+003,4.231763e+001
2.756719e+003,3.997696e+001
2.757683e+003,3.814986e+001
2.758647e+003,3.617576e+001
2.759611e+003,3.393247e+001
2.760575e+003,3.177061e+001
2.761540e+003,2.971181e+001
2.762504e+003,2.770036e+001
2.763468e+003,2.618561e+001
2.764432e+003,2.499621e+001
2.765396e+003,2.335051e+001
2.766361e+003,2.171957e+001
2.767325e+003,2.042868e+001
2.768289e+003,1.940614e+001
2.769253e+003,1.853351e+001
2.770218e+003,1.769424e+001
2.771182e+003,1.638896e+001
2.772146e+003,1.508170e+001
2.773110e+003,1.528431e+001
2.774075e+003,1.537867e+001
2.775039e+003,1.442436e+001
2.776003e+003,1.300842e+001
2.776967e+003,1.194455e+001
2.777932e+003,1.238767e+001
2.778896e+003,1.252039e+001
2.779860e+003,1.172884e+001
2.780824e+003,1.052375e+001
2.781789e+003,9.909139e+000
2.782753e+003,1.036684e+001
2.783717e+003,1.081642e+001
2.784681e+003,1.078291e+001
2.785646e+003,9.887243e+000
2.786610e+003,9.183559e+000
2.787574e+003,8.995286e+000
2.788538e+003,9.257585e+000
2.789502e+003,9.299031e+000
2.790467e+003,8.589974e+000
2.791431e+003,7.737166e+000
2.792395e+003,7.153121e+000
2.793359e+003,7.364754e+000
2.794323e+003,7.362099e+000
2.795288e+003,6.896038e+000
2.796252e+003,7.105844e+000
2.797216e+003,7.393956e+000
2.798180e+003,7.015625e+000
2.799145e+003,6.718268e+000
2.800109e+003,6.512435e+000
2.801073e+003,5.918338e+000
2.802037e+003,5.783813e+000
2.803002e+003,6.408386e+000
2.803966e+003,6.409249e+000
2.804930e+003,6.043279e+000
2.805894e+003,5.923253e+000
2.806859e+003,6.121847e+000
2.807823e+003,6.216525e+000
2.808787e+003,5.368773e+000
2.809751e+003,4.233312e+000
2.810716e+003,3.327677e+000
2.811680e+003,3.885337e+000
2.812644e+003,4.915631e+000
2.813608e+003,5.392173e+000
2.814573e+003,4.657926e+000
2.815537e+003,3.115054e+000
2.816501e+003,4.002870e+000
2.817465e+003,5.128983e+000
2.818429e+003,4.961383e+000
2.819394e+003,4.475720e+000
2.820358e+003,4.184062e+000
2.821322e+003,4.322245e+000
2.822286e+003,4.369764e+000
2.823250e+003,4.197912e+000
2.824215e+003,3.894726e+000
2.825179e+003,3.562684e+000
2.826143e+003,3.181649e+000
2.827107e+003,3.912379e+000
2.828072e+003,4.728419e+000
2.829036e+003,4.000450e+000
2.830000e+003,3.441026e+000
2.830964e+003,3.561734e+000
2.831929e+003,3.812063e+000
2.832893e+003,3.816993e+000
2.833857e+003,3.499366e+000
2.834821e+003,3.241364e+000
2.835786e+003,3.188481e+000
2.836750e+003,3.644238e+000
2.837714e+003,3.543743e+000
2.838678e+003,2.884171e+000
2.839643e+003,2.875770e+000
2.840607e+003,3.299007e+000
2.841571e+003,3.750229e+000
2.842535e+003,3.398633e+000
2.843500e+003,2.761259e+000
2.844464e+003,2.663594e+000
2.845428e+003,2.831517e+000
2.846392e+003,2.983496e+000
2.847356e+003,2.878138e+000
2.848321e+003,2.528317e+000
2.849285e+003,1.823575e+000
2.850249e+003,2.045830e+000
2.851213e+003,2.685876e+000
2.852177e+003,2.846342e+000
2.853142e+003,2.201934e+000
2.854106e+003,1.399349e+000
2.855070e+003,2.102082e+000
2.856034e+003,2.983166e+000
2.856999e+003,3.059285e+000
2.857963e+003,2.047264e+000
2.858927e+003,1.147616e+000
2.859891e+003,1.945683e+000
2.860856e+003,1.996783e+000
2.861820e+003,1.305055e+000
2.862784e+003,1.035491e+000
2.863748e+003,1.216654e+000
2.864713e+003,1.711319e+000
2.865677e+003,2.160010e+000
2.866641e+003,2.274190e+000
2.867605e+003,1.908824e+000
2.868570e+003,1.324429e+000
2.869534e+003,1.059696e+000
2.870498e+003,2.175045e+000
2.871462e+003,3.023349e+000
2.872427e+003,3.046718e+000
2.873391e+003,2.055279e+000
2.874355e+003,1.296881e+000
2.875319e+003,1.801164e+000
2.876283e+003,1.913065e+000
2.877248e+003,1.563537e+000
2.878212e+003,1.481485e+000
2.879176e+003,1.570711e+000
2.880140e+003,1.755116e+000
2.881104e+003,2.330558e+000
2.882069e+003,2.421521e+000
2.883033e+003,1.257091e+000
2.883997e+003,1.141144e+000
2.884961e+003,1.600097e+000
2.885926e+003,1.405502e+000
2.886890e+003,8.166239e-001
2.887854e+003,3.203776e-001
2.888818e+003,7.715464e-001
2.889783e+003,1.377053e+000
2.890747e+003,1.552400e+000
2.891711e+003,9.566986e-001
2.892675e+003,6.383392e-001
2.893640e+003,2.147605e+000
2.894604e+003,2.475723e+000
2.895568e+003,1.510624e+000
2.896532e+003,1.097904e+000
2.897497e+003,1.001438e+000
2.898461e+003,1.006778e+000
2.899425e+003,1.051654e+000
2.900389e+003,1.113510e+000
2.901354e+003,1.188482e+000
2.902318e+003,1.358703e+000
2.903282e+003,1.510578e+000
2.904246e+003,1.523454e+000
2.905210e+003,1.020699e+000
2.906175e+003,4.788513e-002
2.907139e+003,3.595917e-001
2.908103e+003,1.097094e+000
2.909067e+003,1.387108e+000
2.910031e+003,1.599629e+000
2.910996e+003,1.686141e+000
2.911960e+003,1.384827e+000
2.912924e+003,1.177273e+000
2.913888e+003,1.059266e+000
2.914853e+003,4.919545e-001
2.915817e+003,2.383087e-001
2.916781e+003,6.233185e-001
2.917745e+003,1.104078e+000
2.918710e+003,1.493762e+000
2.919674e+003,1.599068e+000
2.920638e+003,1.258337e+000
2.921602e+003,7.887512e-001
2.922567e+003,5.149261e-001
2.923531e+003,1.022809e+000
2.924495e+003,2.208594e+000
2.925459e+003,1.635765e+000
2.926424e+003,1.048430e+000
2.927388e+003,1.560135e+000
2.928352e+003,1.480938e+000
2.929316e+003,6.748912e-001
2.930281e+003,-1.791534e-001
2.931245e+003,3.690450e-001
2.932209e+003,1.699157e+000
2.933173e+003,1.793499e+000
2.934137e+003,1.107065e+000
2.935102e+003,-1.602366e-001
2.936066e+003,3.792928e-001
2.937030e+003,1.371918e+000
2.937994e+003,1.449691e+000
2.938958e+003,1.211516e+000
2.939923e+003,9.498891e-001
2.940887e+003,8.310923e-001
2.941851e+003,8.303955e-001
2.942815e+003,8.571970e-001
2.943780e+003,6.550313e-001
2.944744e+003,6.230835e-001
2.945708e+003,1.086056e+000
2.946672e+003,1.158407e+000
2.947637e+003,7.378001e-001
2.948601e+003,-4.945984e-002
2.949565e+003,-1.036265e-001
2.950529e+003,4.278941e-001
2.951494e+003,5.853790e-001
2.952458e+003,5.988474e-001
2.953422e+003,6.420054e-001
2.954386e+003,7.506338e-001
2.955351e+003,8.010772e-001
2.956315e+003,7.116730e-001
2.957279e+003,8.438273e-001
2.958243e+003,9.075297e-001
2.959208e+003,4.275177e-001
2.960172e+003,1.820862e-001
2.961136e+003,3.143850e-001
2.962100e+003,6.546183e-001
2.963064e+003,3.553019e-001
2.964029e+003,-7.186757e-001
2.964993e+003,4.119670e-002
2.965957e+003,9.981354e-001
2.966921e+003,9.358286e-001
2.967885e+003,4.429067e-001
2.968850e+003,7.151794e-002
2.969814e+003,4.797913e-001
2.970778e+003,7.812836e-001
2.971742e+003,5.924795e-001
2.972707e+003,-2.110535e-001
2.973671e+003,-6.863169e-001
2.974635e+003,-3.713562e-001
2.975600e+003,6.754863e-002
2.976564e+003,2.140452e-001
2.977528e+003,-1.723785e-001
2.978492e+003,1.148071e-002
2.979457e+003,5.704366e-001
2.980421e+003,7.472056e-001
2.981385e+003,5.260925e-001
2.982349e+003,9.637553e-002
2.983313e+003,-4.958822e-001
2.984278e+003,-3.294881e-001
2.985242e+003,9.644135e-001
2.986206e+003,9.963776e-001
2.987170e+003,5.527486e-001
2.988135e+003,5.741689e-001
2.989099e+003,4.730876e-001
2.990063e+003,2.112651e-001
2.991027e+003,-7.002767e-003
2.991991e+003,-3.613088e-001
2.992956e+003,-6.281494e-001
2.993920e+003,1.930074e-001
2.994884e+003,7.742707e-001
2.995848e+003,4.955963e-001
2.996813e+003,-5.748576e-001
2.997777e+003,-8.145732e-001
2.998741e+003,7.316732e-001
2.999705e+003,1.019621e+000
3.000670e+003,2.073751e-001
3.001634e+003,-9.929718e-001
3.002598e+003,-2.993836e-001
3.003562e+003,1.437556e+000
3.004527e+003,4.351827e-001
3.005491e+003,-6.511780e-001
3.006455e+003,-5.521983e-001
3.007419e+003,-2.648346e-001
3.008384e+003,-6.939290e-002
3.009348e+003,-1.369222e-002
3.010312e+003,-4.205424e-002
3.011276e+003,-3.881327e-002
3.012240e+003,1.088867e-001
3.013205e+003,3.465332e-001
3.014169e+003,4.521088e-001
3.015133e+003,-1.419393e-001
3.016097e+003,-4.595398e-001
3.017062e+003,-1.481771e-001
3.018026e+003,3.717977e-001
3.018990e+003,6.233083e-001
3.019954e+003,3.874603e-001
3.020918e+003,1.207520e-001
3.021883e+003,1.190236e-001
3.022847e+003,5.968363e-001
3.023811e+003,7.469676e-001
3.024775e+003,6.546265e-001
3.025740e+003,8.499959e-001
3.026704e+003,5.379903e-001
3.027668e+003,-3.753866e-002
3.028632e+003,9.201670e-001
3.029597e+003,1.098178e+000
3.030561e+003,-8.097199e-001
3.031525e+003,-3.675985e-001
3.032489e+003,7.118255e-001
3.033454e+003,6.265309e-001
3.034418e+003,-2.540985e-001
3.035382e+003,-8.302144e-001
3.036346e+003,1.446838e-001
3.037311e+003,8.682149e-001
3.038275e+003,8.766337e-001
3.039239e+003,2.832642e-001
3.040203e+003,9.869385e-003
3.041167e+003,3.116648e-001
3.042132e+003,6.206034e-001
3.043096e+003,2.659444e-001
3.044060e+003,-6.934855e-001
3.045024e+003,-4.683685e-001
3.045989e+003,2.997498e-001
3.046953e+003,9.068817e-001
3.047917e+003,4.211670e-001
3.048881e+003,-5.164042e-001
3.049845e+003,-6.167257e-001
3.050810e+003,-2.988312e-001
3.051774e+003,1.177266e-002
3.052738e+003,-2.364716e-001
3.053702e+003,-3.843130e-001
3.054667e+003,-1.444916e-001
3.055631e+003,3.283193e-001
3.056595e+003,3.524495e-001
3.057559e+003,-4.336802e-001
3.058524e+003,-7.451772e-001
3.059488e+003,-3.040670e-001
3.060452e+003,6.874613e-001
3.061416e+003,9.769053e-001
3.062381e+003,6.186218e-001
3.063345e+003,6.118266e-002
3.064309e+003,1.899689e-001
3.065273e+003,8.190460e-001
3.066238e+003,5.276571e-001
3.067202e+003,-1.141622e-001
3.068166e+003,-5.840556e-001
3.069130e+003,-2.431661e-001
3.070094e+003,1.542755e-001
3.071059e+003,2.667135e-002
3.072023e+003,4.079081e-002
3.072987e+003,3.234660e-002
3.073951e+003,-3.580363e-001
3.074916e+003,-1.310506e-001
3.075880e+003,9.279480e-002
3.076844e+003,-1.117166e+000
3.077808e+003,-8.470418e-001
3.078772e+003,7.760773e-001
3.079737e+003,1.136644e+000
3.080701e+003,6.596110e-001
3.081665e+003,-2.650116e-001
3.082629e+003,-3.894033e-001
3.083594e+003,-3.409933e-002
3.084558e+003,4.330129e-001
3.085522e+003,5.973185e-001
3.086486e+003,5.618144e-001
3.087451e+003,5.251567e-001
3.088415e+003,3.538961e-001
3.089379e+003,2.535166e-001
3.090343e+003,6.971659e-001
3.091308e+003,3.398387e-001
3.092272e+003,-5.919037e-001
3.093236e+003,-2.418599e-001
3.094200e+003,-2.348368e-001
3.095165e+003,-9.325226e-001
3.096129e+003,-1.003773e+000
3.097093e+003,-5.419962e-001
3.098057e+003,3.882172e-001
3.099021e+003,6.218069e-001
3.099986e+003,1.877289e-001
3.100950e+003,-5.660828e-001
3.101914e+003,-1.560872e-002
3.102878e+003,6.621694e-001
3.103843e+003,-3.569468e-001
3.104807e+003,-9.825409e-001
3.105771e+003,-7.402649e-001
3.106735e+003,1.629211e-001
3.107699e+003,4.977814e-001
3.108664e+003,7.694194e-002
3.109628e+003,-3.160970e-001
3.110592e+003,-1.959686e-001
3.111556e+003,3.964711e-001
3.112521e+003,1.029440e+000
3.113485e+003,8.507507e-001
3.114449e+003,-1.039639e+000
3.115413e+003,-1.028140e+000
3.116378e+003,-1.087748e-001
3.117342e+003,3.990753e-001
3.118306e+003,1.044637e-001
3.119270e+003,-4.673696e-001
3.120235e+003,-6.099752e-001
3.121199e+003,-5.628784e-001
3.122163e+003,-3.791728e-001
3.123127e+003,-3.536479e-002
3.124092e+003,4.396169e-001
3.125056e+003,8.506887e-001
3.126020e+003,6.445089e-001
3.126984e+003,1.070272e-001
3.127948e+003,-3.115397e-001
3.128913e+003,1.000620e-001
3.129877e+003,4.965190e-001
3.130841e+003,3.418986e-001
3.131805e+003,3.103058e-001
3.132770e+003,1.078044e-001
3.133734e+003,-3.528727e-001
3.134698e+003,6.335144e-002
3.135662e+003,7.488016e-001
3.136626e+003,6.306763e-001
3.137591e+003,1.975952e-001
3.138555e+003,-1.562469e-001
3.139519e+003,6.959636e-002
3.140483e+003,5.352102e-001
3.141448e+003,7.592997e-001
3.142412e+003,-1.274994e-001
3.143376e+003,-1.700450e-001
3.144340e+003,9.170756e-001
3.145305e+003,8.431437e-001
3.146269e+003,7.291362e-002
3.147233e+003,-9.096792e-001
3.148197e+003,-2.847137e-001
3.149162e+003,4.964488e-001
3.150126e+003,4.218445e-002
3.151090e+003,-6.483032e-001
3.152054e+003,-1.073986e+000
3.153019e+003,-1.063103e+000
3.153983e+003,-5.436401e-001
3.154947e+003,8.376058e-003
3.155911e+003,-8.090413e-002
3.156875e+003,1.431346e-001
3.157840e+003,5.579336e-001
3.158804e+003,2.310455e-001
3.159768e+003,1.061035e-001
3.160732e+003,3.192047e-001
3.161697e+003,1.944723e-001
3.162661e+003,1.033793e-001
3.163625e+003,1.668386e-001
3.164589e+003,1.989146e-001
3.165553e+003,1.468658e-001
3.166518e+003,5.728048e-002
3.167482e+003,1.916707e-001
3.168446e+003,3.766876e-001
3.169410e+003,4.735565e-001
3.170375e+003,-5.106608e-003
3.171339e+003,-3.023946e-001
3.172303e+003,3.005839e-001
3.173267e+003,4.624725e-001
3.174232e+003,2.360056e-001
3.175196e+003,3.526916e-002
3.176160e+003,5.309225e-001
3.177124e+003,1.107593e+000
3.178089e+003,5.726135e-001
3.179053e+003,-8.082581e-002
3.180017e+003,-2.893728e-001
3.180981e+003,3.408681e-001
3.181946e+003,9.395050e-001
3.182910e+003,1.010457e+000
3.183874e+003,-5.834961e-002
3.184838e+003,-3.663676e-001
3.185802e+003,5.471944e-001
3.186767e+003,7.775329e-001
3.187731e+003,1.889028e-001
3.188695e+003,-6.503489e-001
3.189659e+003,4.106344e-002
3.190624e+003,8.078461e-001
3.191588e+003,3.950724e-001
3.192552e+003,2.785421e-001
3.193516e+003,1.097819e-001
3.194480e+003,-5.224762e-001
3.195445e+003,-8.324738e-001
3.196409e+003,-6.260020e-001
3.197373e+003,3.955902e-001
3.198337e+003,4.165273e-001
3.199302e+003,-8.287862e-002
3.200266e+003,7.162984e-002
3.201230e+003,7.853190e-002
3.202194e+003,-3.438914e-001
3.203159e+003,-1.410458e+000
3.204123e+003,-1.543423e+000
3.205087e+003,-6.329122e-001
3.206051e+003,-1.460185e-001
3.207016e+003,-1.449809e-001
3.207980e+003,-4.068268e-001
3.208944e+003,-7.581787e-002
3.209908e+003,2.517029e-001
3.210873e+003,1.424388e-001
3.211837e+003,-5.655263e-001
3.212801e+003,-5.762705e-001
3.213765e+003,7.348124e-001
3.214729e+003,1.177446e+000
3.215694e+003,5.363871e-001
3.216658e+003,-6.103516e-001
3.217622e+003,-3.147288e-001
3.218586e+003,4.695140e-001
3.219551e+003,2.996979e-001
3.220515e+003,-7.390442e-002
3.221479e+003,-7.888692e-002
3.222443e+003,7.846537e-001
3.223407e+003,1.231854e+000
3.224372e+003,1.005361e+000
3.225336e+003,1.196493e-002
3.226300e+003,9.033203e-002
3.227264e+003,8.434153e-001
3.228229e+003,7.641378e-001
3.229193e+003,1.154804e+000
3.230157e+003,2.009582e+000
3.231121e+003,2.254928e+000
3.232086e+003,2.119940e+000
3.233050e+003,1.904023e+000
3.234014e+003,1.987604e+000
3.234978e+003,2.037879e+000
3.235943e+003,2.125566e+000
3.236907e+003,3.091172e+000
3.237871e+003,3.537966e+000
3.238835e+003,3.076444e+000
3.239800e+003,3.539153e+000
3.240764e+003,4.539679e+000
3.241728e+003,5.635468e+000
3.242692e+003,6.013210e+000
3.243656e+003,6.474184e+000
3.244621e+003,7.642003e+000
3.245585e+003,8.888566e+000
3.246549e+003,9.858529e+000
3.247513e+003,1.014580e+001
3.248478e+003,1.124745e+001
3.249442e+003,1.301649e+001
3.250406e+003,1.492389e+001
3.251370e+003,1.567103e+001
3.252334e+003,1.586040e+001
3.253299e+003,1.669748e+001
3.254263e+003,1.677132e+001
3.255227e+003,1.629012e+001
3.256191e+003,1.580469e+001
3.257156e+003,1.364730e+001
3.258120e+003,1.106917e+001
3.259084e+003,1.093341e+001
3.260048e+003,9.771297e+000
3.261013e+003,7.243238e+000
3.261977e+003,5.140799e+000
3.262941e+003,3.976737e+000
3.263905e+003,3.586966e+000
3.264870e+003,3.121042e+000
3.265834e+003,2.930661e+000
3.266798e+003,2.817987e+000
3.267762e+003,1.618595e+000
3.268727e+003,1.139009e+000
3.269691e+003,1.718505e+000
3.270655e+003,1.368201e+000
3.271619e+003,6.794861e-001
3.272583e+003,3.062409e-001
3.273548e+003,9.722310e-001
3.274512e+003,1.279487e+000
3.275476e+003,5.331756e-001
3.276440e+003,-7.499491e-002
3.277405e+003,-3.251139e-002
3.278369e+003,5.273305e-001
3.279333e+003,7.428284e-002
3.280297e+003,-6.169901e-001
3.281261e+003,-8.059601e-001
3.282226e+003,4.449463e-001
3.283190e+003,1.169188e+000
3.284154e+003,2.452728e-001
3.285118e+003,-5.101430e-001
3.286083e+003,-6.968587e-001
3.287047e+003,-3.803650e-001
3.288011e+003,1.386139e-001
3.288975e+003,1.320068e-001
3.289940e+003,-7.889933e-001
3.290904e+003,-9.581828e-001
3.291868e+003,-3.964701e-001
3.292832e+003,2.973338e-001
3.293797e+003,1.325083e-001
3.294761e+003,-2.597768e-001
3.295725e+003,4.520772e-002
3.296689e+003,5.267131e-002
3.297654e+003,-3.946666e-001
3.298618e+003,-9.867238e-001
3.299582e+003,-2.559163e-001
3.300546e+003,7.244650e-001
3.301510e+003,-4.873169e-001
3.302475e+003,-7.010641e-001
3.303439e+003,-2.571635e-001
3.304403e+003,-5.551087e-001
3.305367e+003,-4.529592e-001
3.306332e+003,-5.306397e-002
3.307296e+003,-1.945129e-001
3.308260e+003,-4.084584e-001
3.309224e+003,-4.115367e-001
3.310189e+003,1.024272e-002
3.311153e+003,-3.246002e-001
3.312117e+003,-1.147049e+000
3.313081e+003,-1.270847e+000
3.314046e+003,-9.767019e-001
3.315010e+003,-5.263041e-001
3.315974e+003,-2.731954e-001
3.316938e+003,-3.678955e-001
3.317903e+003,-5.108531e-001
3.318867e+003,1.998769e-001
3.319831e+003,5.647512e-001
3.320795e+003,1.205882e-001
3.321760e+003,-9.444839e-001
3.322724e+003,-7.100474e-001
3.323688e+003,6.093058e-001
3.324652e+003,5.473918e-001
3.325616e+003,-9.436035e-002
3.326581e+003,-5.482493e-001
3.327545e+003,-1.632924e-001
3.328509e+003,3.306549e-001
3.329473e+003,4.930593e-001
3.330438e+003,-2.652852e-001
3.331402e+003,-6.926290e-001
3.332366e+003,-4.506765e-001
3.333330e+003,-6.602733e-001
3.334294e+003,-9.806147e-001
3.335259e+003,-1.183407e+000
3.336223e+003,-9.172679e-001
3.337187e+003,-2.084971e-001
3.338151e+003,4.549225e-001
3.339116e+003,-1.798625e-001
3.340080e+003,-5.654602e-001
3.341044e+003,-1.486735e-001
3.342008e+003,-1.091237e-001
3.342973e+003,-1.005961e-001
3.343937e+003,2.023722e-002
3.344901e+003,-1.643097e-001
3.345865e+003,1.373393e-002
3.346830e+003,7.242096e-001
3.347794e+003,-1.755473e-002
3.348758e+003,-6.093648e-001
3.349722e+003,-3.468943e-001
3.350687e+003,-3.297577e-001
3.351651e+003,-2.942067e-001
3.352615e+003,-5.880839e-002
3.353579e+003,-3.044179e-001
3.354543e+003,-2.608673e-001
3.355508e+003,2.543457e-001
3.356472e+003,4.334595e-001
3.357436e+003,1.199473e-001
3.358400e+003,-5.884237e-001
3.359365e+003,-7.735682e-001
3.360329e+003,-2.666473e-001
3.361293e+003,4.991669e-001
3.362257e+003,-4.719279e-001
3.363221e+003,-9.882451e-001
3.364186e+003,5.325826e-002
3.365150e+003,4.770538e-001
3.366114e+003,7.976786e-002
3.367078e+003,-7.512049e-001
3.368043e+003,-2.835429e-001
3.369007e+003,3.585551e-001
3.369971e+003,3.679230e-001
3.370935e+003,3.455607e-002
3.371900e+003,-3.632711e-002
3.372864e+003,2.914398e-001
3.373828e+003,5.287699e-001
3.374792e+003,4.286295e-001
3.375757e+003,8.390299e-003
3.376721e+003,-4.148855e-001
3.377685e+003,-4.174113e-001
3.378649e+003,4.996948e-002
3.379614e+003,3.375590e-001
3.380578e+003,9.827474e-002
3.381542e+003,-3.758301e-001
3.382506e+003,6.002645e-001
3.383470e+003,7.514251e-001
3.384435e+003,-5.581467e-001
3.385399e+003,-6.693614e-001
3.386363e+003,-2.421560e-001
3.387327e+003,9.402873e-002
3.388292e+003,4.305135e-001
3.389256e+003,1.015808e-001
3.390220e+003,-8.379567e-001
3.391184e+003,-2.877462e-001
3.392148e+003,-7.364909e-003
3.393113e+003,-5.428045e-001
3.394077e+003,-5.022894e-001
3.395041e+003,-2.127899e-001
3.396005e+003,3.430583e-002
3.396970e+003,-5.277099e-002
3.397934e+003,-6.134542e-002
3.398898e+003,1.282715e-001
3.399862e+003,4.422465e-001
3.400827e+003,5.751038e-002
3.401791e+003,-9.204290e-001
3.402755e+003,-9.986801e-001
3.403719e+003,-4.623245e-001
3.404684e+003,2.261129e-001
3.405648e+003,6.558767e-001
3.406612e+003,5.764465e-001
3.407576e+003,3.009552e-001
3.408541e+003,7.108389e-001
3.409505e+003,1.637980e-001
3.410469e+003,-8.904358e-001
3.411433e+003,2.536011e-003
3.412397e+003,6.400197e-001
3.413362e+003,5.277344e-001
3.414326e+003,2.654226e-001
3.415290e+003,4.257589e-001
3.416254e+003,6.506643e-001
3.417219e+003,-3.888448e-001
3.418183e+003,-3.807434e-001
3.419147e+003,3.181254e-001
3.420111e+003,4.315389e-002
3.421075e+003,-2.128540e-001
3.422040e+003,2.345785e-003
3.423004e+003,9.667491e-001
3.423968e+003,1.106972e+000
3.424932e+003,4.160644e-001
3.425897e+003,-4.253489e-001
3.426861e+003,-3.690221e-001
3.427825e+003,2.169769e-001
3.428789e+003,4.493652e-001
3.429754e+003,1.742564e-001
3.430718e+003,8.534139e-002
3.431682e+003,8.083171e-001
3.432646e+003,8.558339e-001
3.433611e+003,5.583954e-001
3.434575e+003,6.941498e-001
3.435539e+003,4.697622e-001
3.436503e+003,1.746562e-001
3.437468e+003,1.886332e-001
3.438432e+003,-1.760661e-002
3.439396e+003,1.933696e-002
3.440360e+003,7.315969e-001
3.441324e+003,1.202129e+000
3.442289e+003,1.074640e+000
3.443253e+003,4.153737e-001
3.444217e+003,5.976583e-001
3.445181e+003,5.884186e-001
3.446146e+003,-2.539780e-001
3.447110e+003,5.758626e-001
3.448074e+003,1.111722e+000
3.449038e+003,3.483754e-001
3.450002e+003,-8.249512e-002
3.450967e+003,5.784658e-002
3.451931e+003,4.707601e-001
3.452895e+003,-1.237442e-001
3.453859e+003,-1.649628e-001
3.454824e+003,7.045726e-001
3.455788e+003,8.152679e-001
3.456752e+003,2.033946e-001
3.457716e+003,-5.524322e-001
3.458681e+003,-2.501033e-001
3.459645e+003,2.305339e-001
3.460609e+003,3.804789e-001
3.461573e+003,-2.830088e-001
3.462538e+003,4.810008e-001
3.463502e+003,2.114795e+000
3.464466e+003,9.236196e-001
3.465430e+003,-1.512599e-001
3.466395e+003,-2.120824e-001
3.467359e+003,9.560160e-001
3.468323e+003,9.677857e-001
3.469287e+003,6.190033e-002
3.470251e+003,-4.287211e-003
3.471216e+003,2.710012e-001
3.472180e+003,6.965444e-001
3.473144e+003,9.488434e-001
3.474108e+003,3.364593e-001
3.475073e+003,-1.271296e-001
3.476037e+003,9.463460e-001
3.477001e+003,1.138645e+000
3.477965e+003,9.715922e-001
3.478929e+003,1.272292e+000
3.479894e+003,1.017200e+000
3.480858e+003,4.301890e-001
3.481822e+003,-1.083659e-001
3.482786e+003,1.700434e-001
3.483751e+003,7.424194e-001
3.484715e+003,1.042616e+000
3.485679e+003,1.271551e+000
3.486643e+003,1.076074e+000
3.487608e+003,4.015625e-001
3.488572e+003,3.907079e-001
3.489536e+003,5.524597e-001
3.490500e+003,4.940272e-001
3.491465e+003,-8.905538e-003
3.492429e+003,2.756831e-001
3.493393e+003,1.455549e+000
3.494357e+003,1.777782e+000
3.495322e+003,1.542377e+000
3.496286e+003,1.177439e+000
3.497250e+003,1.065103e+000
3.498214e+003,9.561635e-001
3.499178e+003,9.421519e-001
3.500143e+003,1.315904e+000
